0
0
0
0
0
0
0
0
0
0
0
0
0
0
0
0
0
0
0
0
0
0
0
0
0
0
0
0
0
0
0
0
0
0
0
0
0
0
0
0
0
0
0
0
0
0
0
0
0
0
0
0
0
0
0
0
0
0
0
0
0
0
0
0
0
0
0
0
0
0
0
0
0
0
0
0
0
0
0
0
0
0
0
0
0
0
0
0
0
0
0
0
0
0
0
0
0
0
0
0
0
0
0
0
0
0
0
0
0
0
0
0
0
0
0
0
0
0
0
0
0
0
0
0
0
0
0
0
0
0
0
0
0
0
0
0
0
0
0
0
0
0
0
0
0
0
0
0
0
0
0
0
0
0
0
0
0
0
0
0
0
0
0
0
0
0
0
0
0
0
0
0
0
0
0
0
0
0
0
0
0
0
0
0
0
0
0
0
0
0
0
0
0
0
0
0
0
0
0
0
0
0
0
0
0
0
0
0
0
0
0
0
0
0
0
0
0
0
0
0
0
0
0
0
0
0
0
0
0
0
0
0
0
0
0
0
0
0
0
0
0
0
0
0
0
0
0
0
0
0
0
0
0
0
0
0
0
0
0
0
0
0
0
0
0
0
0
0
0
0
0
0
0
0
0
0
0
0
0
0
0
0
0
0
0
0
0
0
0
0
0
0
0
0
0
0
0
0
0
0
0
0
0
0
0
0
0
0
0
0
0
0
0
0
0
0
0
0
0
0
0
0
0
0
0
0
0
0
0
0
0
0
0
0
0
0
0
0
0
0
0
0
0
0
0
0
0
0
0
0
0
0
0
0
0
0
0
0
0
0
0
0
0
0
0
0
0
0
0
0
0
0
0
0
0
0
0
0
0
0
0
0
0
0
0
0
0
0
0
0
0
0
0
0
0
0
0
0
0
0
0
0
0
0
0
0
0
0
0
0
0
0
0
0
0
0
0
0
0
0
0
0
0
0
0
0
0
0
0
0
0
0
0
0
0
0
0
0
0
0
0
0
0
0
0
0
0
0
0
0
0
0
0
0
0
0
0
0
0
0
0
0
0
0
0
0
0
0
0
0
0
0
0
0
0
0
0
0
0
0
0
0
0
0
0
0
0
0
0
0
0
0
0
0
0
0
0
0
0
0
0
0
0
0
0
0
0
0
0
0
0
0
0
0
0
0
0
0
0
0
0
0
0
0
0
0
0
0
0
0
0
0
0
0
0
0
0
0
0
0
0
0
0
0
0
0
0
0
0
0
0
0
0
0
0
0
0
0
0
0
0
0
0
0
0
0
0
0
0
0
0
0
0
0
0
0
0
0
0
0
0
0
0
0
0
0
0
0
0
0
0
0
0
0
0
0
0
0
0
0
0
0
0
0
0
0
0
0
0
0
0
0
0
0
0
0
0
0
0
0
0
0
0
0
0
0
0
0
0
0
0
0
0
0
0
0
0
0
0
0
0
0
0
0
0
0
0
0
0
0
0
0
0
0
0
0
0
0
0
0
0
0
0
0
0
0
0
0
0
0
0
0
0
0
0
0
0
0
0
0
0
0
0
0
0
0
0
0
0
0
0
0
0
0
0
0
0
0
0
0
0
0
0
0
0
0
0
0
0
0
0
0
0
0
0
0
0
0
0
0
0
0
0
0
0
0
0
0
0
0
0
0
0
0
0
0
0
0
0
0
0
0
0
0
0
0
0
0
0
0
0
0
0
0
0
0
0
0
0
0
0
0
0
0
0
0
0
0
0
0
0
0
0
0
0
0
0
0
0
0
0
0
0
0
0
0
0
0
0
0
0
0
0
0
0
0
0
0
0
0
0
0
0
0
0
0
0
0
0
0
0
0
0
0
0
0
0
0
0
0
0
0
0
0
0
0
0
0
0
0
0
0
0
0
0
0
0
0
0
0
0
0
0
0
0
0
0
0
0
0
0
0
0
0
0
0
0
0
0
0
0
0
0
0
0
0
0
0
0
0
0
0
0
0
0
0
0
0
0
0
0
0
0
0
0
0
0
0
0
0
0
0
0
0
0
0
0
0
0
0
0
0
0
0
0
0
0
0
0
0
0
0
0
0
0
0
0
0
0
0
0
0
0
0
0
0
0
0
0
0
0
0
0
0
0
0
0
0
0
0
0
0
0
0
0
0
0
0
0
0
0
0
0
0
0
0
0
0
0
0
0
0
0
0
0
0
0
0
0
0
0
0
0
0
0
0
0
0
0
0
0
0
0
0
0
0
0
0
0
0
0
0
0
0
0
0
0
0
0
0
0
0
0
0
0
0
0
0
0
0
0
0
0
0
0
0
0
0
0
0
0
0
0
0
0
0
0
0
0
0
0
0
0
0
0
0
0
0
0
0
0
0
0
0
0
0
0
0
0
0
0
0
0
0
0
0
0
0
0
0
0
0
0
0
0
0
0
0
0
0
0
0
0
0
0
0
0
0
0
0
0
0
0
0
0
0
0
0
0
0
0
0
0
0
0
0
0
0
0
0
0
0
0
0
0
0
0
0
0
0
0
0
0
0
0
0
0
0
0
0
0
0
0
0
0
0
0
0
0
0
0
0
0
0
0
0
0
0
0
0
0
0
0
0
0
0
0
0
0
0
0
0
0
0
0
0
0
0
0
0
0
0
0
0
0
0
0
0
0
0
0
0
0
0
0
0
0
0
0
0
0
0
0
0
0
0
0
0
0
0
0
0
0
0
0
0
0
0
0
0
0
0
0
0
0
0
0
0
0
0
0
0
0
0
0
0
0
0
0
0
0
0
0
0
0
0
0
0
0
0
0
0
0
0
0
0
0
0
0
0
0
0
0
0
0
0
0
0
0
0
0
0
0
0
0
0
0
0
0
0
0
0
0
0
0
0
0
0
0
0
0
0
0
0
0
0
0
0
0
0
0
0
0
0
0
0
0
0
0
0
0
0
0
0
0
0
0
0
0
0
0
0
0
0
0
0
0
0
0
0
0
0
0
0
0
0
0
0
0
0
0
0
0
0
0
0
0
0
0
0
0
0
0
0
0
0
0
0
0
0
0
0
0
0
0
0
0
0
0
0
0
0
0
0
0
0
0
0
0
0
0
0
0
0
0
0
0
0
0
0
0
0
0
0
0
0
0
0
0
0
0
0
0
0
0
0
0
0
0
0
0
0
0
0
0
0
0
0
0
0
0
0
0
0
0
0
0
0
0
0
0
0
0
0
0
0
0
0
0
0
0
0
0
0
0
0
0
0
0
0
0
0
0
0
0
0
0
0
0
0
0
0
0
0
0
0
0
0
0
0
0
0
0
0
0
0
0
0
0
0
0
0
0
0
0
0
0
0
0
0
0
0
0
0
0
0
0
0
0
0
0
0
0
0
0
0
0
0
0
0
0
0
0
0
0
0
0
0
0
0
0
0
0
0
0
0
0
0
0
0
0
0
0
0
0
0
0
0
0
0
0
0
0
0
0
0
0
0
0
0
0
0
0
0
0
0
0
0
0
0
0
0
0
0
0
0
0
0
0
0
0
0
0
0
0
0
0
0
0
0
0
0
0
0
0
0
0
0
0
0
0
0
0
0
0
0
0
0
0
0
0
0
0
0
0
0
0
0
0
0
0
0
0
0
0
0
0
0
0
0
0
0
0
0
0
0
0
0
0
0
0
0
0
0
0
0
0
0
0
0
0
0
0
0
0
0
0
0
0
0
0
0
0
0
0
0
0
0
0
0
0
0
0
0
0
0
0
0
0
0
0
0
0
0
0
0
0
0
0
0
0
0
0
0
0
0
0
0
0
0
0
0
0
0
0
0
0
0
0
0
0
0
0
0
0
0
0
0
0
0
0
0
0
0
0
0
0
0
0
0
0
0
0
0
0
0
0
0
0
0
0
0
0
0
0
0
0
0
0
0
0
0
0
0
0
0
0
0
0
0
0
0
0
0
0
0
0
0
0
0
0
0
0
0
0
0
0
0
0
0
0
0
0
0
0
0
0
0
0
0
0
0
0
0
0
0
0
0
0
0
0
0
0
0
0
0
0
0
0
0
0
0
0
0
0
0
0
0
0
0
0
0
0
0
0
0
0
0
0
0
0
0
0
0
0
0
0
0
0
0
0
0
0
0
0
0
0
0
0
0
0
0
0
0
0
0
0
0
0
0
0
0
0
0
0
0
0
0
0
0
0
0
0
0
0
0
0
0
0
0
0
0
0
0
0
0
0
0
0
0
0
0
0
0
0
0
0
0
0
0
0
0
0
0
0
0
0
0
0
0
0
0
0
0
0
0
0
0
0
0
0
0
0
0
0
0
0
0
0
0
0
0
0
0
0
0
0
0
0
0
0
0
0
0
0
0
0
0
0
0
0
0
0
0
0
0
0
0
0
0
0
0
0
0
0
0
0
0
0
0
0
0
0
0
0
0
0
0
0
0
0
0
0
0
0
0
0
0
0
0
0
0
0
0
0
0
0
0
0
0
0
0
0
0
0
0
0
0
0
0
0
0
0
0
0
0
0
0
0
0
0
0
0
0
0
0
0
0
0
0
0
0
0
0
0
0
0
0
0
0
0
0
0
0
0
0
0
0
0
0
0
0
0
0
0
0
0
0
0
0
0
0
0
0
0
0
0
0
0
0
0
0
0
0
0
0
0
0
38
4
39
4
38
4
40
4
41
4
45
4
40
4
44
4
43
4
42
4
44
4
37
4
28
4
32
4
37
4
36
4
38
4
33
4
32
4
34
4
33
4
26
4
28
4
27
4
26
4
38
4
37
4
32
4
32
4
25
4
32
4
35
4
30
4
35
4
28
4
27
4
35
4
26
4
34
4
19
4
24
4
39
4
37
4
39
4
43
4
34
4
35
4
24
4
23
4
30
4
34
4
35
4
34
4
32
4
30
4
35
4
35
4
43
4
46
4
38
4
38
4
39
4
39
4
40
4
50
4
51
4
48
4
46
4
46
4
45
4
50
4
46
4
46
4
43
4
38
4
38
4
47
4
41
4
48
4
54
4
58
4
59
4
55
4
52
4
52
4
58
4
37
4
51
4
58
4
54
4
49
4
48
4
45
4
46
4
48
4
48
4
48
4
43
4
46
4
49
4
63
4
71
4
67
4
70
4
66
4
64
4
75
4
74
4
67
4
71
4
75
4
74
4
80
4
80
4
86
4
87
4
74
4
70
4
78
4
76
4
72
4
78
4
78
4
75
4
75
4
78
4
73
4
71
4
72
4
82
4
87
4
91
4
95
4
110
4
118
4
125
4
139
4
144
4
158
4
160
4
162
4
156
4
146
4
140
4
136
4
144
4
138
4
133
4
118
4
93
4
81
4
87
4
96
4
81
4
88
4
72
4
54
4
54
4
52
4
39
4
26
4
14
4
17
4
34
4
32
4
30
4
32
4
29
4
20
4
14
4
23
4
26
4
27
4
27
4
26
4
35
4
33
4
22
4
42
4
45
4
48
4
42
4
41
4
38
4
51
4
51
4
76
4
106
4
134
4
176
4
22
5
158
5
48
6
142
6
155
6
121
6
39
6
99
5
78
4
27
3
70
2
166
1
123
1
182
1
252
1
54
2
98
2
172
2
250
2
78
3
160
3
219
3
26
4
70
4
90
4
102
4
112
4
106
4
99
4
95
4
105
4
106
4
107
4
102
4
100
4
98
4
98
4
93
4
84
4
94
4
90
4
84
4
90
4
89
4
93
4
99
4
98
4
95
4
98
4
107
4
108
4
114
4
118
4
117
4
130
4
129
4
132
4
143
4
152
4
153
4
159
4
174
4
182
4
183
4
185
4
199
4
203
4
207
4
215
4
224
4
233
4
237
4
246
4
248
4
3
5
11
5
16
5
21
5
38
5
50
5
60
5
74
5
79
5
84
5
102
5
112
5
122
5
130
5
133
5
144
5
166
5
184
5
176
5
187
5
186
5
193
5
211
5
220
5
212
5
219
5
210
5
215
5
222
5
213
5
211
5
208
5
200
5
191
5
182
5
163
5
136
5
115
5
86
5
53
5
34
5
2
5
240
4
219
4
186
4
153
4
128
4
102
4
82
4
67
4
53
4
37
4
16
4
2
4
247
3
243
3
233
3
222
3
219
3
212
3
211
3
203
3
206
3
206
3
203
3
200
3
187
3
187
3
183
3
179
3
191
3
198
3
193
3
194
3
187
3
183
3
195
3
195
3
196
3
202
3
202
3
204
3
210
3
213
3
210
3
206
3
208
3
208
3
219
3
218
3
221
3
223
3
218
3
217
3
218
3
219
3
223
3
219
3
218
3
218
3
223
3
224
3
222
3
230
3
227
3
222
3
223
3
226
3
225
3
227
3
230
3
227
3
235
3
231
3
222
3
227
3
227
3
219
3
222
3
217
3
213
3
226
3
210
3
212
3
219
3
210
3
212
3
216
3
215
3
213
3
215
3
217
3
218
3
210
3
207
3
212
3
214
3
213
3
204
3
218
3
208
3
202
3
210
3
206
3
198
3
203
3
202
3
204
3
199
3
196
3
196
3
199
3
195
3
196
3
195
3
191
3
199
3
207
3
203
3
204
3
208
3
208
3
210
3
216
3
202
3
190
3
200
3
199
3
195
3
198
3
195
3
207
3
208
3
215
3
216
3
210
3
206
3
204
3
210
3
202
3
196
3
195
3
204
3
204
3
208
3
214
3
212
3
199
3
202
3
202
3
202
3
200
3
197
3
206
3
204
3
202
3
211
3
213
3
211
3
211
3
195
3
197
3
202
3
202
3
211
3
211
3
205
3
202
3
210
3
210
3
211
3
211
3
210
3
210
3
216
3
211
3
213
3
223
3
216
3
210
3
211
3
215
3
209
3
208
3
208
3
214
3
215
3
214
3
213
3
216
3
216
3
223
3
223
3
218
3
210
3
214
3
208
3
210
3
208
3
207
3
210
3
218
3
217
3
212
3
214
3
216
3
212
3
218
3
214
3
214
3
224
3
219
3
212
3
215
3
219
3
211
3
219
3
225
3
219
3
216
3
216
3
219
3
227
3
216
3
212
3
208
3
216
3
217
3
218
3
213
3
217
3
214
3
218
3
216
3
218
3
219
3
227
3
240
3
246
3
2
4
14
4
25
4
26
4
34
4
40
4
44
4
48
4
39
4
23
4
23
4
19
4
13
4
11
4
250
3
240
3
242
3
252
3
242
3
235
3
232
3
218
3
226
3
225
3
223
3
218
3
210
3
214
3
215
3
218
3
220
3
222
3
216
3
212
3
213
3
214
3
209
3
216
3
219
3
210
3
198
3
201
3
207
3
222
3
219
3
215
3
216
3
206
3
202
3
214
3
218
3
230
3
3
4
30
4
58
4
130
4
17
5
155
5
27
6
74
6
61
6
11
6
118
5
142
4
71
3
32
2
87
1
233
0
251
0
78
1
153
1
208
1
27
2
104
2
188
2
32
3
107
3
167
3
216
3
0
4
8
4
12
4
14
4
11
4
17
4
26
4
32
4
40
4
46
4
47
4
52
4
54
4
56
4
55
4
58
4
58
4
54
4
59
4
63
4
65
4
64
4
70
4
70
4
72
4
73
4
84
4
88
4
72
4
72
4
87
4
82
4
80
4
87
4
87
4
98
4
114
4
117
4
124
4
131
4
131
4
130
4
142
4
142
4
148
4
146
4
154
4
163
4
178
4
185
4
188
4
198
4
202
4
206
4
218
4
229
4
242
4
251
4
4
5
6
5
23
5
32
5
39
5
56
5
72
5
88
5
99
5
107
5
110
5
122
5
128
5
131
5
142
5
147
5
150
5
150
5
147
5
142
5
136
5
134
5
129
5
134
5
127
5
115
5
106
5
90
5
71
5
46
5
19
5
245
4
215
4
190
4
162
4
139
4
111
4
78
4
54
4
25
4
253
3
224
3
204
3
188
3
182
3
162
3
151
3
146
3
139
3
127
3
122
3
107
3
104
3
110
3
110
3
100
3
102
3
101
3
92
3
98
3
96
3
94
3
91
3
91
3
92
3
107
3
118
3
118
3
114
3
104
3
104
3
114
3
115
3
118
3
122
3
124
3
120
3
130
3
128
3
132
3
131
3
133
3
141
3
143
3
142
3
136
3
138
3
138
3
140
3
144
3
142
3
144
3
150
3
153
3
141
3
147
3
144
3
148
3
151
3
149
3
144
3
147
3
144
3
144
3
150
3
149
3
146
3
146
3
146
3
149
3
151
3
155
3
148
3
146
3
144
3
138
3
142
3
141
3
144
3
136
3
126
3
123
3
135
3
143
3
142
3
147
3
136
3
132
3
135
3
123
3
121
3
128
3
136
3
130
3
138
3
132
3
128
3
129
3
137
3
142
3
142
3
146
3
147
3
146
3
142
3
137
3
134
3
142
3
147
3
149
3
144
3
142
3
139
3
141
3
138
3
139
3
131
3
126
3
142
3
148
3
148
3
154
3
154
3
148
3
151
3
151
3
156
3
162
3
157
3
150
3
147
3
139
3
140
3
147
3
150
3
146
3
152
3
156
3
156
3
153
3
155
3
156
3
155
3
155
3
152
3
156
3
155
3
153
3
158
3
155
3
158
3
160
3
154
3
152
3
162
3
155
3
161
3
162
3
147
3
150
3
158
3
155
3
159
3
163
3
158
3
150
3
150
3
153
3
159
3
167
3
170
3
166
3
166
3
154
3
150
3
158
3
162
3
168
3
166
3
162
3
162
3
152
3
160
3
163
3
163
3
162
3
159
3
154
3
150
3
155
3
154
3
160
3
168
3
170
3
166
3
166
3
163
3
160
3
164
3
170
3
167
3
165
3
163
3
166
3
165
3
163
3
168
3
174
3
170
3
166
3
161
3
160
3
160
3
162
3
170
3
165
3
161
3
160
3
164
3
170
3
183
3
194
3
208
3
218
3
226
3
232
3
242
3
230
3
236
3
242
3
234
3
217
3
227
3
229
3
227
3
223
3
200
3
172
3
170
3
175
3
178
3
190
3
185
3
174
3
174
3
172
3
167
3
163
3
160
3
159
3
163
3
164
3
162
3
158
3
156
3
151
3
160
3
163
3
172
3
174
3
170
3
162
3
167
3
170
3
167
3
170
3
177
3
216
3
226
3
227
3
232
3
226
3
202
3
190
3
195
3
225
3
8
4
40
4
109
4
210
4
82
5
187
5
235
5
179
5
96
5
174
4
195
3
178
2
182
1
18
1
192
0
221
0
66
1
146
1
204
1
8
2
69
2
139
2
240
2
67
3
118
3
166
3
208
3
216
3
222
3
231
3
241
3
239
3
244
3
244
3
246
3
4
4
1
4
8
4
5
4
10
4
4
4
14
4
14
4
6
4
5
4
10
4
7
4
6
4
15
4
22
4
16
4
24
4
31
4
32
4
33
4
46
4
42
4
41
4
48
4
51
4
48
4
43
4
46
4
52
4
59
4
72
4
70
4
82
4
83
4
94
4
106
4
101
4
104
4
112
4
121
4
132
4
137
4
135
4
144
4
158
4
171
4
172
4
182
4
189
4
194
4
212
4
224
4
240
4
2
5
2
5
8
5
23
5
33
5
31
5
34
5
41
5
45
5
51
5
54
5
69
5
75
5
78
5
85
5
94
5
96
5
87
5
70
5
59
5
56
5
51
5
33
5
11
5
254
4
230
4
206
4
187
4
163
4
130
4
110
4
88
4
64
4
48
4
26
4
248
3
234
3
207
3
185
3
166
3
151
3
135
3
127
3
120
3
107
3
96
3
89
3
83
3
90
3
92
3
80
3
83
3
67
3
47
3
51
3
44
3
48
3
48
3
47
3
43
3
39
3
29
3
27
3
34
3
41
3
52
3
58
3
55
3
62
3
70
3
74
3
84
3
95
3
93
3
92
3
98
3
98
3
104
3
119
3
126
3
130
3
143
3
141
3
139
3
143
3
139
3
138
3
139
3
140
3
127
3
131
3
138
3
136
3
139
3
142
3
146
3
146
3
141
3
144
3
155
3
153
3
148
3
150
3
141
3
132
3
134
3
130
3
125
3
130
3
142
3
147
3
143
3
147
3
155
3
162
3
166
3
162
3
160
3
147
3
150
3
154
3
151
3
153
3
162
3
162
3
154
3
154
3
145
3
141
3
134
3
133
3
130
3
122
3
98
3
95
3
107
3
144
3
144
3
119
3
118
3
119
3
122
3
111
3
120
3
142
3
131
3
122
3
130
3
127
3
131
3
134
3
136
3
138
3
146
3
152
3
144
3
146
3
148
3
149
3
150
3
152
3
151
3
162
3
154
3
148
3
142
3
144
3
148
3
163
3
162
3
152
3
150
3
147
3
138
3
142
3
138
3
134
3
142
3
137
3
138
3
142
3
134
3
138
3
146
3
146
3
146
3
147
3
144
3
146
3
154
3
153
3
151
3
149
3
137
3
134
3
145
3
146
3
142
3
150
3
155
3
151
3
155
3
158
3
159
3
163
3
163
3
162
3
163
3
162
3
162
3
160
3
160
3
155
3
155
3
162
3
163
3
166
3
163
3
157
3
160
3
165
3
172
3
186
3
191
3
186
3
191
3
178
3
171
3
177
3
179
3
174
3
171
3
171
3
174
3
182
3
179
3
172
3
174
3
174
3
170
3
168
3
163
3
159
3
158
3
161
3
170
3
176
3
176
3
184
3
188
3
178
3
177
3
186
3
194
3
200
3
202
3
201
3
212
3
240
3
251
3
0
4
0
4
254
3
244
3
230
3
217
3
206
3
194
3
178
3
174
3
178
3
179
3
182
3
178
3
174
3
175
3
179
3
182
3
180
3
182
3
188
3
182
3
198
3
190
3
182
3
187
3
190
3
196
3
199
3
200
3
201
3
202
3
223
3
254
3
31
4
63
4
144
4
38
5
185
5
35
6
52
6
255
5
176
5
2
5
19
4
224
2
246
1
69
1
250
0
30
1
101
1
166
1
219
1
32
2
106
2
206
2
39
3
101
3
152
3
208
3
246
3
2
4
2
4
251
3
251
3
5
4
10
4
27
4
35
4
42
4
48
4
42
4
34
4
35
4
42
4
48
4
48
4
53
4
60
4
59
4
60
4
58
4
71
4
75
4
71
4
66
4
69
4
74
4
75
4
83
4
80
4
75
4
73
4
82
4
90
4
95
4
100
4
109
4
104
4
104
4
112
4
115
4
123
4
123
4
123
4
130
4
151
4
155
4
161
4
178
4
174
4
178
4
187
4
201
4
213
4
226
4
232
4
242
4
247
4
255
4
8
5
23
5
39
5
49
5
62
5
75
5
86
5
103
5
110
5
114
5
123
5
129
5
134
5
146
5
148
5
152
5
150
5
138
5
136
5
147
5
146
5
132
5
123
5
105
5
82
5
67
5
43
5
16
5
250
4
219
4
199
4
174
4
147
4
118
4
91
4
58
4
32
4
18
4
249
3
228
3
215
3
202
3
194
3
174
3
162
3
149
3
147
3
140
3
130
3
126
3
128
3
128
3
122
3
117
3
114
3
115
3
115
3
116
3
119
3
121
3
118
3
115
3
120
3
116
3
122
3
120
3
113
3
120
3
122
3
129
3
138
3
123
3
132
3
125
3
131
3
133
3
142
3
139
3
128
3
138
3
142
3
138
3
147
3
152
3
156
3
160
3
160
3
160
3
170
3
169
3
166
3
174
3
173
3
172
3
174
3
174
3
174
3
174
3
179
3
180
3
186
3
181
3
179
3
186
3
184
3
178
3
190
3
180
3
168
3
179
3
187
3
182
3
190
3
186
3
186
3
186
3
188
3
181
3
178
3
173
3
184
3
190
3
185
3
184
3
179
3
183
3
187
3
191
3
179
3
176
3
182
3
178
3
190
3
194
3
195
3
191
3
192
3
189
3
181
3
182
3
181
3
162
3
167
3
162
3
163
3
163
3
174
3
186
3
194
3
189
3
196
3
200
3
194
3
196
3
211
3
225
3
228
3
224
3
216
3
208
3
207
3
214
3
214
3
217
3
217
3
219
3
226
3
231
3
226
3
226
3
224
3
217
3
223
3
219
3
219
3
221
3
218
3
220
3
227
3
231
3
222
3
227
3
228
3
228
3
234
3
230
3
224
3
222
3
227
3
232
3
234
3
228
3
226
3
235
3
236
3
231
3
229
3
228
3
243
3
238
3
229
3
229
3
231
3
239
3
241
3
246
3
250
3
250
3
247
3
239
3
241
3
250
3
248
3
247
3
246
3
245
3
243
3
251
3
246
3
238
3
247
3
254
3
254
3
250
3
243
3
242
3
243
3
251
3
242
3
249
3
245
3
246
3
255
3
244
3
240
3
250
3
254
3
253
3
254
3
254
3
0
4
11
4
10
4
4
4
10
4
0
4
246
3
247
3
250
3
245
3
254
3
254
3
252
3
3
4
255
3
248
3
254
3
253
3
0
4
3
4
2
4
3
4
3
4
2
4
2
4
7
4
2
4
0
4
2
4
251
3
249
3
14
4
15
4
13
4
10
4
8
4
5
4
24
4
32
4
38
4
43
4
45
4
57
4
72
4
82
4
90
4
82
4
70
4
60
4
70
4
56
4
50
4
38
4
11
4
252
3
7
4
17
4
16
4
19
4
10
4
252
3
2
4
247
3
241
3
235
3
227
3
223
3
231
3
227
3
233
3
243
3
239
3
231
3
227
3
234
3
233
3
239
3
228
3
223
3
230
3
235
3
228
3
227
3
225
3
222
3
227
3
227
3
222
3
226
3
226
3
252
3
22
4
41
4
85
4
167
4
58
5
203
5
54
6
74
6
41
6
234
5
58
5
70
4
248
2
3
2
69
1
250
0
37
1
110
1
174
1
227
1
47
2
127
2
219
2
56
3
123
3
182
3
236
3
10
4
19
4
21
4
13
4
14
4
10
4
23
4
26
4
32
4
39
4
42
4
36
4
40
4
44
4
46
4
46
4
46
4
56
4
58
4
60
4
55
4
58
4
51
4
56
4
63
4
67
4
65
4
75
4
73
4
70
4
78
4
80
4
80
4
78
4
86
4
94
4
104
4
107
4
104
4
114
4
111
4
115
4
128
4
131
4
138
4
135
4
146
4
151
4
159
4
166
4
176
4
187
4
192
4
199
4
211
4
224
4
236
4
242
4
248
4
4
5
19
5
32
5
42
5
55
5
66
5
72
5
86
5
86
5
92
5
114
5
118
5
117
5
123
5
130
5
126
5
131
5
129
5
131
5
130
5
122
5
122
5
122
5
126
5
112
5
91
5
71
5
45
5
26
5
6
5
238
4
211
4
182
4
155
4
128
4
94
4
72
4
54
4
26
4
252
3
227
3
210
3
193
3
179
3
169
3
146
3
139
3
133
3
118
3
115
3
114
3
111
3
115
3
106
3
99
3
95
3
91
3
84
3
91
3
98
3
97
3
98
3
96
3
96
3
94
3
86
3
95
3
114
3
107
3
104
3
112
3
108
3
104
3
110
3
114
3
116
3
127
3
121
3
122
3
126
3
123
3
121
3
128
3
133
3
119
3
128
3
124
3
128
3
139
3
142
3
139
3
146
3
146
3
148
3
150
3
147
3
143
3
147
3
147
3
146
3
155
3
159
3
166
3
174
3
175
3
170
3
167
3
166
3
165
3
162
3
155
3
152
3
163
3
158
3
153
3
155
3
147
3
147
3
155
3
153
3
150
3
144
3
143
3
147
3
152
3
154
3
148
3
144
3
135
3
130
3
135
3
134
3
128
3
131
3
138
3
140
3
136
3
130
3
132
3
130
3
136
3
140
3
134
3
137
3
134
3
136
3
142
3
138
3
142
3
137
3
130
3
134
3
130
3
136
3
139
3
138
3
142
3
142
3
136
3
130
3
139
3
149
3
150
3
150
3
143
3
147
3
154
3
151
3
166
3
164
3
160
3
158
3
159
3
151
3
161
3
158
3
160
3
167
3
170
3
165
3
155
3
156
3
160
3
157
3
142
3
173
3
164
3
158
3
166
3
173
3
169
3
170
3
166
3
162
3
155
3
154
3
166
3
160
3
158
3
167
3
162
3
164
3
170
3
169
3
170
3
174
3
171
3
166
3
171
3
174
3
178
3
175
3
170
3
164
3
167
3
174
3
181
3
186
3
187
3
183
3
179
3
182
3
183
3
183
3
176
3
174
3
181
3
186
3
189
3
190
3
191
3
189
3
200
3
198
3
202
3
206
3
200
3
202
3
202
3
195
3
195
3
203
3
198
3
193
3
197
3
194
3
198
3
203
3
203
3
200
3
202
3
191
3
191
3
187
3
178
3
170
3
175
3
182
3
194
3
202
3
211
3
226
3
240
3
243
3
250
3
7
4
9
4
14
4
26
4
25
4
21
4
19
4
11
4
3
4
250
3
242
3
232
3
227
3
234
3
232
3
235
3
230
3
220
3
215
3
209
3
206
3
211
3
208
3
200
3
199
3
191
3
197
3
207
3
206
3
206
3
211
3
205
3
198
3
198
3
194
3
192
3
195
3
191
3
196
3
206
3
208
3
210
3
211
3
211
3
205
3
202
3
198
3
192
3
219
3
255
3
26
4
49
4
92
4
205
4
95
5
224
5
57
6
64
6
250
5
128
5
160
4
144
3
118
2
158
1
1
1
238
0
58
1
146
1
211
1
11
2
80
2
146
2
243
2
91
3
144
3
208
3
8
4
30
4
43
4
45
4
31
4
30
4
38
4
47
4
46
4
46
4
42
4
56
4
64
4
73
4
72
4
69
4
61
4
64
4
61
4
56
4
66
4
58
4
58
4
66
4
59
4
52
4
58
4
70
4
75
4
74
4
72
4
72
4
82
4
89
4
86
4
88
4
90
4
104
4
126
4
126
4
123
4
134
4
139
4
149
4
162
4
168
4
171
4
175
4
180
4
183
4
186
4
178
4
183
4
192
4
199
4
210
4
216
4
226
4
235
4
248
4
2
5
8
5
19
5
32
5
48
5
71
5
82
5
90
5
96
5
99
5
109
5
120
5
130
5
128
5
130
5
128
5
139
5
142
5
136
5
127
5
119
5
123
5
112
5
104
5
85
5
68
5
51
5
35
5
9
5
243
4
225
4
202
4
162
4
137
4
112
4
88
4
57
4
28
4
8
4
243
3
234
3
224
3
205
3
186
3
171
3
165
3
155
3
158
3
151
3
137
3
136
3
130
3
130
3
134
3
139
3
140
3
149
3
136
3
130
3
134
3
132
3
134
3
135
3
130
3
120
3
127
3
134
3
130
3
139
3
137
3
138
3
142
3
143
3
144
3
145
3
146
3
150
3
153
3
167
3
162
3
159
3
160
3
160
3
170
3
165
3
162
3
166
3
162
3
168
3
175
3
168
3
170
3
182
3
182
3
180
3
179
3
181
3
180
3
182
3
177
3
172
3
178
3
182
3
174
3
170
3
176
3
174
3
179
3
180
3
180
3
178
3
175
3
178
3
178
3
173
3
170
3
179
3
182
3
178
3
176
3
165
3
159
3
178
3
175
3
180
3
178
3
172
3
176
3
175
3
170
3
172
3
167
3
162
3
166
3
171
3
174
3
170
3
174
3
166
3
165
3
171
3
177
3
177
3
182
3
180
3
175
3
176
3
173
3
171
3
170
3
169
3
171
3
172
3
171
3
167
3
170
3
175
3
172
3
182
3
176
3
170
3
170
3
172
3
170
3
175
3
172
3
168
3
177
3
173
3
176
3
179
3
182
3
176
3
183
3
178
3
177
3
179
3
170
3
170
3
174
3
176
3
182
3
179
3
179
3
182
3
182
3
186
3
187
3
194
3
190
3
184
3
187
3
188
3
186
3
192
3
184
3
189
3
195
3
198
3
192
3
200
3
195
3
193
3
194
3
194
3
194
3
194
3
193
3
194
3
198
3
201
3
196
3
202
3
203
3
202
3
200
3
200
3
199
3
207
3
203
3
212
3
211
3
210
3
205
3
208
3
204
3
202
3
207
3
207
3
208
3
207
3
205
3
203
3
211
3
211
3
202
3
206
3
202
3
198
3
206
3
207
3
214
3
213
3
217
3
214
3
222
3
218
3
219
3
218
3
211
3
202
3
207
3
215
3
228
3
243
3
0
4
9
4
15
4
21
4
29
4
42
4
42
4
24
4
22
4
16
4
16
4
19
4
23
4
12
4
251
3
246
3
240
3
239
3
235
3
237
3
239
3
224
3
224
3
218
3
219
3
214
3
211
3
211
3
209
3
226
3
218
3
208
3
202
3
207
3
211
3
215
3
217
3
212
3
219
3
218
3
214
3
222
3
222
3
220
3
223
3
219
3
218
3
225
3
222
3
221
3
230
3
242
3
4
4
32
4
55
4
113
4
243
4
135
5
6
6
82
6
53
6
240
5
119
5
154
4
119
3
103
2
151
1
14
1
18
1
90
1
174
1
241
1
36
2
100
2
170
2
6
3
96
3
163
3
217
3
7
4
27
4
28
4
27
4
35
4
41
4
38
4
46
4
42
4
48
4
54
4
54
4
53
4
59
4
56
4
67
4
58
4
70
4
69
4
72
4
73
4
72
4
78
4
81
4
83
4
87
4
86
4
90
4
94
4
97
4
99
4
102
4
99
4
104
4
106
4
106
4
110
4
112
4
115
4
122
4
126
4
121
4
121
4
136
4
143
4
144
4
151
4
157
4
165
4
175
4
186
4
202
4
208
4
211
4
218
4
227
4
239
4
254
4
10
5
22
5
30
5
51
5
63
5
62
5
78
5
81
5
89
5
103
5
107
5
114
5
126
5
131
5
128
5
134
5
129
5
139
5
142
5
140
5
134
5
131
5
134
5
119
5
106
5
93
5
85
5
78
5
54
5
30
5
6
5
242
4
212
4
192
4
158
4
131
4
106
4
79
4
50
4
27
4
10
4
247
3
232
3
217
3
199
3
186
3
172
3
166
3
160
3
149
3
140
3
142
3
136
3
134
3
136
3
134
3
130
3
119
3
131
3
126
3
126
3
123
3
122
3
123
3
123
3
119
3
122
3
128
3
128
3
131
3
130
3
128
3
134
3
136
3
136
3
143
3
139
3
135
3
139
3
142
3
142
3
147
3
154
3
152
3
146
3
147
3
150
3
154
3
158
3
159
3
171
3
173
3
168
3
171
3
163
3
166
3
168
3
168
3
174
3
174
3
170
3
176
3
171
3
166
3
174
3
168
3
170
3
166
3
171
3
163
3
162
3
167
3
162
3
162
3
171
3
167
3
161
3
160
3
160
3
164
3
168
3
166
3
158
3
158
3
160
3
161
3
163
3
155
3
150
3
155
3
156
3
152
3
154
3
150
3
142
3
143
3
131
3
134
3
139
3
143
3
149
3
154
3
152
3
149
3
166
3
163
3
158
3
160
3
151
3
146
3
143
3
143
3
142
3
155
3
157
3
159
3
162
3
149
3
148
3
155
3
151
3
150
3
147
3
146
3
144
3
147
3
154
3
158
3
158
3
158
3
152
3
159
3
154
3
158
3
167
3
168
3
162
3
163
3
162
3
159
3
166
3
163
3
152
3
162
3
163
3
154
3
159
3
160
3
168
3
167
3
163
3
158
3
158
3
160
3
159
3
167
3
167
3
163
3
171
3
174
3
176
3
174
3
169
3
168
3
163
3
162
3
162
3
176
3
187
3
176
3
171
3
171
3
172
3
176
3
174
3
170
3
166
3
169
3
172
3
171
3
172
3
179
3
182
3
174
3
173
3
178
3
177
3
175
3
179
3
181
3
181
3
185
3
183
3
180
3
183
3
179
3
178
3
178
3
177
3
180
3
179
3
176
3
181
3
186
3
186
3
190
3
190
3
184
3
184
3
182
3
179
3
183
3
194
3
190
3
190
3
190
3
187
3
188
3
183
3
181
3
176
3
178
3
181
3
190
3
190
3
193
3
196
3
211
3
221
3
227
3
235
3
234
3
236
3
246
3
6
4
14
4
15
4
9
4
2
4
3
4
7
4
3
4
254
3
239
3
228
3
216
3
227
3
223
3
222
3
211
3
206
3
208
3
200
3
204
3
198
3
187
3
184
3
195
3
200
3
200
3
198
3
186
3
183
3
184
3
186
3
187
3
186
3
183
3
186
3
190
3
188
3
187
3
193
3
197
3
194
3
199
3
197
3
202
3
211
3
211
3
208
3
211
3
240
3
10
4
59
4
160
4
55
5
191
5
34
6
55
6
32
6
210
5
13
5
246
3
179
2
196
1
26
1
227
0
38
1
111
1
168
1
219
1
46
2
123
2
223
2
62
3
118
3
179
3
238
3
1
4
7
4
14
4
13
4
16
4
18
4
7
4
11
4
18
4
23
4
22
4
34
4
35
4
40
4
42
4
48
4
44
4
47
4
49
4
61
4
62
4
59
4
59
4
58
4
61
4
62
4
70
4
75
4
75
4
75
4
79
4
82
4
83
4
88
4
89
4
99
4
102
4
102
4
110
4
107
4
104
4
110
4
123
4
136
4
154
4
152
4
156
4
162
4
163
4
157
4
195
4
199
4
212
4
223
4
242
4
248
4
247
4
4
5
26
5
27
5
27
5
55
5
72
5
68
5
91
5
107
5
95
5
98
5
128
5
130
5
126
5
135
5
147
5
149
5
155
5
140
5
135
5
136
5
142
5
148
5
142
5
130
5
124
5
106
5
96
5
78
5
58
5
35
5
7
5
236
4
206
4
174
4
140
4
115
4
84
4
58
4
38
4
12
4
248
3
224
3
205
3
190
3
176
3
161
3
150
3
143
3
137
3
120
3
120
3
115
3
110
3
110
3
102
3
98
3
104
3
107
3
101
3
98
3
92
3
88
3
95
3
95
3
98
3
100
3
97
3
98
3
92
3
92
3
94
3
108
3
121
3
112
3
108
3
105
3
98
3
102
3
102
3
100
3
117
3
131
3
124
3
122
3
131
3
130
3
134
3
135
3
128
3
132
3
137
3
146
3
146
3
147
3
148
3
142
3
144
3
156
3
155
3
151
3
158
3
156
3
157
3
154
3
152
3
154
3
160
3
156
3
153
3
144
3
141
3
132
3
146
3
146
3
137
3
136
3
132
3
129
3
134
3
137
3
143
3
138
3
136
3
133
3
142
3
146
3
145
3
148
3
152
3
142
3
138
3
129
3
138
3
142
3
144
3
151
3
142
3
141
3
140
3
144
3
146
3
145
3
134
3
134
3
135
3
132
3
132
3
139
3
134
3
132
3
127
3
122
3
120
3
119
3
122
3
122
3
124
3
114
3
118
3
120
3
120
3
116
3
111
3
110
3
116
3
116
3
114
3
114
3
122
3
124
3
128
3
126
3
118
3
114
3
107
3
110
3
116
3
117
3
120
3
124
3
123
3
126
3
126
3
125
3
124
3
130
3
132
3
133
3
138
3
149
3
160
3
154
3
144
3
149
3
166
3
186
3
194
3
202
3
210
3
214
3
209
3
189
3
180
3
168
3
157
3
146
3
124
3
133
3
122
3
110
3
91
3
78
3
79
3
86
3
98
3
104
3
130
3
146
3
155
3
171
3
181
3
200
3
183
3
180
3
186
3
179
3
156
3
140
3
130
3
118
3
120
3
114
3
100
3
98
3
95
3
84
3
79
3
74
3
70
3
72
3
57
3
108
3
152
3
135
3
98
3
96
3
106
3
125
3
136
3
130
3
126
3
125
3
127
3
118
3
136
3
136
3
138
3
130
3
137
3
146
3
148
3
143
3
152
3
160
3
165
3
170
3
173
3
175
3
174
3
184
3
212
3
216
3
225
3
235
3
244
3
238
3
224
3
214
3
206
3
196
3
190
3
186
3
177
3
184
3
179
3
177
3
172
3
172
3
168
3
164
3
162
3
153
3
150
3
159
3
154
3
154
3
142
3
146
3
144
3
152
3
155
3
156
3
161
3
160
3
156
3
150
3
150
3
144
3
152
3
157
3
158
3
158
3
162
3
166
3
158
3
157
3
156
3
169
3
189
3
218
3
242
3
10
4
96
4
237
4
114
5
230
5
24
6
234
5
164
5
2
5
20
4
220
2
214
1
37
1
196
0
222
0
57
1
132
1
198
1
15
2
88
2
174
2
5
3
84
3
146
3
206
3
240
3
245
3
244
3
240
3
232
3
234
3
228
3
232
3
218
3
213
3
227
3
228
3
224
3
219
3
225
3
224
3
220
3
228
3
224
3
218
3
218
3
216
3
222
3
232
3
234
3
243
3
0
4
4
4
16
4
21
4
26
4
30
4
32
4
36
4
46
4
64
4
74
4
68
4
53
4
48
4
53
4
53
4
52
4
56
4
54
4
62
4
72
4
75
4
82
4
90
4
97
4
114
4
124
4
134
4
142
4
162
4
174
4
188
4
200
4
212
4
224
4
238
4
252
4
14
5
26
5
25
5
38
5
50
5
55
5
56
5
66
5
74
5
84
5
88
5
84
5
88
5
88
5
88
5
88
5
82
5
74
5
68
5
61
5
48
5
38
5
24
5
10
5
246
4
216
4
186
4
154
4
133
4
103
4
84
4
56
4
29
4
2
4
235
3
212
3
193
3
175
3
165
3
148
3
130
3
117
3
112
3
102
3
95
3
86
3
82
3
84
3
80
3
69
3
64
3
56
3
56
3
53
3
56
3
53
3
47
3
52
3
46
3
39
3
48
3
57
3
59
3
62
3
61
3
59
3
65
3
66
3
52
3
76
3
78
3
77
3
76
3
74
3
83
3
84
3
82
3
90
3
92
3
92
3
93
3
92
3
104
3
113
3
120
3
122
3
124
3
124
3
120
3
116
3
112
3
116
3
119
3
122
3
120
3
118
3
120
3
126
3
124
3
118
3
110
3
122
3
126
3
122
3
117
3
108
3
113
3
106
3
108
3
110
3
109
3
106
3
116
3
121
3
126
3
126
3
119
3
116
3
118
3
116
3
120
3
122
3
121
3
112
3
110
3
110
3
110
3
108
3
107
3
108
3
104
3
103
3
110
3
108
3
112
3
110
3
108
3
100
3
106
3
108
3
105
3
110
3
119
3
118
3
126
3
120
3
117
3
122
3
120
3
116
3
117
3
120
3
119
3
125
3
116
3
122
3
124
3
120
3
123
3
126
3
136
3
141
3
144
3
134
3
133
3
136
3
132
3
127
3
134
3
143
3
140
3
134
3
132
3
129
3
136
3
140
3
138
3
136
3
136
3
138
3
144
3
145
3
144
3
148
3
142
3
132
3
128
3
128
3
134
3
138
3
142
3
151
3
150
3
144
3
142
3
144
3
148
3
151
3
142
3
142
3
145
3
142
3
138
3
138
3
136
3
145
3
145
3
156
3
163
3
165
3
154
3
150
3
145
3
148
3
156
3
157
3
164
3
164
3
161
3
152
3
147
3
150
3
160
3
170
3
169
3
150
3
159
3
161
3
160
3
156
3
158
3
158
3
168
3
164
3
162
3
159
3
158
3
156
3
160
3
155
3
156
3
152
3
157
3
164
3
168
3
175
3
196
3
204
3
205
3
209
3
218
3
230
3
232
3
232
3
228
3
236
3
236
3
230
3
220
3
214
3
205
3
192
3
186
3
192
3
192
3
186
3
178
3
178
3
177
3
172
3
160
3
165
3
159
3
156
3
163
3
164
3
162
3
164
3
163
3
164
3
168
3
173
3
174
3
172
3
169
3
169
3
164
3
158
3
142
3
158
3
158
3
164
3
170
3
173
3
184
3
180
3
186
3
188
3
210
3
242
3
18
4
36
4
102
4
232
4
108
5
229
5
48
6
24
6
197
5
44
5
72
4
57
3
42
2
104
1
235
0
236
0
56
1
126
1
191
1
234
1
35
2
104
2
207
2
39
3
100
3
158
3
203
3
222
3
228
3
230
3
224
3
237
3
241
3
241
3
242
3
242
3
244
3
254
3
250
3
248
3
236
3
254
3
8
4
6
4
5
4
13
4
8
4
11
4
14
4
21
4
19
4
22
4
31
4
28
4
34
4
34
4
37
4
29
4
42
4
44
4
46
4
48
4
53
4
56
4
56
4
70
4
76
4
79
4
84
4
86
4
93
4
103
4
108
4
114
4
127
4
142
4
136
4
146
4
160
4
169
4
170
4
178
4
187
4
207
4
218
4
232
4
240
4
246
4
8
5
16
5
28
5
47
5
39
5
52
5
67
5
76
5
84
5
88
5
91
5
92
5
89
5
81
5
82
5
88
5
85
5
80
5
78
5
76
5
64
5
54
5
37
5
18
5
8
5
237
4
216
4
192
4
165
4
144
4
108
4
77
4
54
4
36
4
18
4
4
4
232
3
215
3
198
3
182
3
172
3
157
3
148
3
140
3
134
3
136
3
125
3
112
3
108
3
94
3
96
3
105
3
102
3
102
3
111
3
104
3
102
3
92
3
106
3
98
3
91
3
90
3
96
3
95
3
102
3
110
3
102
3
99
3
104
3
111
3
112
3
116
3
122
3
124
3
124
3
118
3
127
3
124
3
130
3
137
3
126
3
138
3
148
3
148
3
145
3
148
3
140
3
138
3
141
3
140
3
143
3
149
3
160
3
158
3
159
3
156
3
159
3
151
3
137
3
165
3
164
3
160
3
166
3
166
3
168
3
170
3
159
3
160
3
160
3
166
3
168
3
168
3
164
3
156
3
160
3
158
3
160
3
160
3
158
3
148
3
142
3
156
3
160
3
160
3
157
3
164
3
168
3
164
3
172
3
164
3
160
3
160
3
161
3
159
3
148
3
152
3
154
3
164
3
166
3
167
3
158
3
161
3
161
3
164
3
168
3
166
3
160
3
159
3
162
3
168
3
170
3
163
3
158
3
167
3
160
3
168
3
166
3
166
3
172
3
174
3
169
3
178
3
182
3
177
3
176
3
175
3
178
3
182
3
186
3
186
3
182
3
178
3
186
3
184
3
184
3
193
3
188
3
191
3
179
3
190
3
198
3
202
3
192
3
190
3
196
3
194
3
207
3
206
3
206
3
207
3
201
3
204
3
206
3
204
3
202
3
212
3
212
3
212
3
214
3
219
3
222
3
216
3
222
3
218
3
228
3
212
3
216
3
223
3
228
3
226
3
224
3
229
3
232
3
232
3
236
3
236
3
236
3
235
3
239
3
244
3
245
3
241
3
249
3
248
3
247
3
251
3
255
3
243
3
249
3
241
3
253
3
251
3
254
3
243
3
246
3
1
4
240
3
242
3
252
3
239
3
246
3
251
3
6
4
252
3
1
4
237
3
235
3
242
3
246
3
243
3
245
3
251
3
245
3
246
3
247
3
234
3
232
3
230
3
230
3
232
3
235
3
239
3
239
3
247
3
6
4
7
4
22
4
32
4
45
4
51
4
70
4
76
4
83
4
80
4
76
4
82
4
70
4
67
4
55
4
46
4
31
4
22
4
15
4
23
4
26
4
22
4
18
4
20
4
19
4
10
4
11
4
6
4
2
4
255
3
8
4
14
4
18
4
18
4
13
4
16
4
14
4
25
4
34
4
26
4
24
4
15
4
34
4
36
4
38
4
24
4
26
4
31
4
32
4
27
4
35
4
46
4
54
4
74
4
92
4
112
4
142
4
216
4
87
5
231
5
106
6
155
6
146
6
96
6
209
5
242
4
171
3
144
2
218
1
106
1
118
1
199
1
2
2
45
2
113
2
206
2
45
3
142
3
211
3
13
4
78
4
112
4
125
4
122
4
122
4
124
4
138
4
141
4
148
4
155
4
166
4
168
4
170
4
173
4
173
4
183
4
183
4
178
4
183
4
174
4
182
4
179
4
179
4
185
4
187
4
189
4
191
4
202
4
191
4
197
4
198
4
206
4
213
4
219
4
218
4
222
4
226
4
222
4
225
4
242
4
248
4
237
4
251
4
3
5
12
5
26
5
27
5
31
5
42
5
41
5
46
5
58
5
70
5
78
5
86
5
98
5
102
5
120
5
135
5
142
5
151
5
162
5
166
5
184
5
195
5
210
5
214
5
230
5
240
5
254
5
248
5
253
5
5
6
8
6
12
6
16
6
18
6
18
6
19
6
30
6
27
6
32
6
18
6
3
6
238
5
240
5
232
5
219
5
202
5
180
5
158
5
119
5
92
5
70
5
34
5
9
5
247
4
216
4
193
4
166
4
145
4
124
4
109
4
96
4
76
4
67
4
58
4
44
4
31
4
22
4
13
4
8
4
13
4
244
3
251
3
249
3
255
3
254
3
244
3
236
3
240
3
243
3
249
3
254
3
3
4
254
3
10
4
241
3
234
3
0
4
8
4
0
4
2
4
251
3
250
3
251
3
1
4
254
3
22
4
35
4
44
4
47
4
39
4
40
4
42
4
36
4
44
4
50
4
50
4
46
4
55
4
53
4
60
4
58
4
50
4
54
4
50
4
54
4
48
4
43
4
42
4
48
4
59
4
51
4
52
4
59
4
63
4
48
4
48
4
40
4
51
4
59
4
60
4
50
4
43
4
26
4
10
4
26
4
32
4
19
4
30
4
14
4
18
4
18
4
18
4
16
4
22
4
27
4
33
4
23
4
11
4
2
4
10
4
8
4
0
4
2
4
253
3
253
3
6
4
254
3
250
3
250
3
252
3
251
3
251
3
242
3
247
3
250
3
240
3
245
3
253
3
250
3
252
3
2
4
249
3
244
3
247
3
245
3
244
3
254
3
0
4
247
3
254
3
0
4
250
3
2
4
252
3
251
3
0
4
249
3
250
3
250
3
248
3
243
3
246
3
242
3
240
3
243
3
244
3
235
3
240
3
246
3
246
3
243
3
242
3
238
3
224
3
221
3
225
3
218
3
216
3
222
3
231
3
235
3
247
3
3
4
6
4
6
4
2
4
2
4
250
3
6
4
254
3
2
4
254
3
254
3
2
4
16
4
12
4
2
4
3
4
254
3
251
3
250
3
209
3
181
3
178
3
182
3
186
3
186
3
197
3
209
3
226
3
221
3
223
3
227
3
230
3
229
3
226
3
235
3
232
3
239
3
243
3
242
3
247
3
250
3
246
3
251
3
254
3
0
4
3
4
0
4
249
3
254
3
248
3
245
3
243
3
220
3
222
3
238
3
240
3
230
3
226
3
224
3
222
3
224
3
214
3
208
3
202
3
194
3
206
3
231
3
224
3
239
3
239
3
240
3
246
3
0
4
2
4
14
4
27
4
35
4
44
4
58
4
41
4
51
4
54
4
51
4
44
4
39
4
16
4
9
4
20
4
16
4
10
4
14
4
11
4
252
3
243
3
231
3
226
3
234
3
224
3
222
3
227
3
239
3
242
3
243
3
236
3
245
3
243
3
242
3
226
3
211
3
199
3
198
3
198
3
203
3
204
3
202
3
186
3
178
3
170
3
161
3
178
3
182
3
186
3
215
3
246
3
255
3
48
4
162
4
36
5
151
5
243
5
252
5
168
5
83
5
142
4
144
3
104
2
130
1
214
0
159
0
211
0
36
1
107
1
154
1
224
1
43
2
123
2
216
2
43
3
102
3
148
3
182
3
181
3
176
3
186
3
199
3
210
3
226
3
226
3
228
3
234
3
234
3
232
3
231
3
232
3
230
3
238
3
231
3
233
3
226
3
219
3
222
3
230
3
240
3
238
3
232
3
232
3
244
3
255
3
1
4
253
3
246
3
242
3
3
4
8
4
253
3
245
3
3
4
18
4
22
4
31
4
26
4
30
4
6
4
19
4
18
4
30
4
35
4
46
4
50
4
51
4
54
4
66
4
66
4
76
4
74
4
96
4
98
4
131
4
147
4
149
4
147
4
144
4
165
4
184
4
198
4
208
4
210
4
225
4
231
4
250
4
251
4
242
4
242
4
246
4
253
4
16
5
47
5
36
5
31
5
27
5
6
5
251
4
243
4
248
4
250
4
218
4
197
4
187
4
155
4
122
4
91
4
70
4
22
4
22
4
8
4
234
3
211
3
175
3
143
3
134
3
98
3
81
3
72
3
54
3
40
3
40
3
25
3
16
3
18
3
10
3
15
3
19
3
2
3
239
2
242
2
5
3
2
3
255
2
4
3
6
3
11
3
0
3
16
3
39
3
24
3
2
3
242
2
251
2
246
2
255
2
10
3
30
3
34
3
35
3
38
3
47
3
22
3
250
2
246
2
228
2
236
2
3
3
17
3
26
3
38
3
40
3
52
3
65
3
52
3
36
3
34
3
52
3
46
3
30
3
18
3
18
3
26
3
30
3
39
3
24
3
10
3
20
3
34
3
34
3
31
3
18
3
9
3
1
3
3
3
8
3
0
3
241
2
237
2
242
2
7
3
10
3
239
2
240
2
243
2
254
2
6
3
248
2
233
2
238
2
248
2
242
2
250
2
237
2
246
2
9
3
32
3
43
3
38
3
25
3
2
3
2
3
255
2
13
3
6
3
24
3
16
3
254
2
242
2
247
2
7
3
30
3
10
3
251
2
224
2
216
2
208
2
208
2
199
2
179
2
178
2
181
2
186
2
198
2
186
2
183
2
144
2
114
2
118
2
106
2
118
2
123
2
102
2
82
2
67
2
48
2
82
2
94
2
70
2
55
2
62
2
66
2
68
2
56
2
34
2
6
2
250
1
245
1
239
1
250
1
236
1
222
1
230
1
233
1
228
1
235
1
253
1
248
1
249
1
230
1
226
1
231
1
214
1
202
1
211
1
208
1
212
1
223
1
201
1
168
1
144
1
128
1
116
1
103
1
66
1
50
1
50
1
24
1
55
1
70
1
100
1
111
1
99
1
98
1
87
1
75
1
44
1
48
1
59
1
86
1
85
1
91
1
104
1
110
1
123
1
112
1
116
1
126
1
125
1
142
1
162
1
182
1
182
1
200
1
216
1
242
1
251
1
13
2
22
2
24
2
32
2
53
2
82
2
109
2
142
2
167
2
173
2
172
2
182
2
205
2
223
2
10
3
35
3
66
3
62
3
74
3
87
3
110
3
126
3
127
3
125
3
128
3
126
3
138
3
163
3
194
3
227
3
241
3
234
3
232
3
240
3
7
4
43
4
49
4
65
4
83
4
83
4
75
4
80
4
82
4
86
4
115
4
130
4
157
4
178
4
175
4
170
4
168
4
176
4
166
4
195
4
198
4
199
4
215
4
222
4
225
4
246
4
14
5
17
5
24
5
36
5
48
5
138
5
30
6
172
6
50
7
155
7
151
7
50
7
179
6
220
5
243
4
226
3
8
3
122
2
99
2
154
2
2
3
92
3
166
3
3
4
56
4
124
4
242
4
85
5
178
5
254
5
47
6
75
6
114
6
126
6
150
6
162
6
186
6
215
6
254
6
34
7
50
7
71
7
82
7
100
7
122
7
146
7
118
7
138
7
155
7
167
7
195
7
218
7
221
7
243
7
219
7
209
7
240
7
234
7
248
7
0
8
246
7
244
7
250
7
250
7
11
8
38
8
55
8
64
8
66
8
50
8
42
8
43
8
54
8
78
8
106
8
92
8
85
8
104
8
103
8
103
8
90
8
104
8
109
8
103
8
82
8
80
8
82
8
74
8
56
8
58
8
83
8
100
8
123
8
144
8
137
8
162
8
174
8
171
8
154
8
166
8
151
8
162
8
171
8
136
8
142
8
130
8
107
8
102
8
99
8
81
8
78
8
56
8
13
8
251
7
237
7
209
7
208
7
182
7
154
7
114
7
77
7
35
7
243
6
210
6
173
6
131
6
106
6
65
6
50
6
32
6
19
6
6
6
239
5
219
5
201
5
204
5
182
5
164
5
157
5
150
5
146
5
155
5
147
5
118
5
113
5
122
5
114
5
117
5
106
5
96
5
94
5
94
5
91
5
83
5
82
5
96
5
78
5
63
5
54
5
37
5
31
5
34
5
27
5
20
5
10
5
7
5
1
5
251
4
251
4
253
4
250
4
230
4
224
4
224
4
224
4
236
4
242
4
245
4
246
4
242
4
227
4
204
4
194
4
194
4
168
4
158
4
150
4
138
4
143
4
122
4
118
4
118
4
107
4
107
4
110
4
107
4
106
4
106
4
108
4
105
4
110
4
118
4
112
4
122
4
127
4
121
4
128
4
122
4
133
4
146
4
140
4
139
4
142
4
133
4
122
4
126
4
126
4
116
4
115
4
115
4
113
4
114
4
102
4
99
4
106
4
114
4
119
4
126
4
119
4
120
4
123
4
125
4
125
4
131
4
126
4
122
4
123
4
124
4
133
4
135
4
127
4
130
4
150
4
146
4
144
4
146
4
150
4
154
4
154
4
143
4
156
4
170
4
157
4
153
4
144
4
147
4
142
4
143
4
140
4
146
4
154
4
156
4
152
4
154
4
155
4
157
4
155
4
152
4
146
4
147
4
138
4
129
4
139
4
150
4
137
4
128
4
122
4
132
4
131
4
122
4
118
4
119
4
115
4
108
4
107
4
101
4
87
4
104
4
96
4
92
4
91
4
88
4
78
4
85
4
84
4
81
4
90
4
80
4
55
4
50
4
40
4
37
4
35
4
36
4
34
4
58
4
44
4
25
4
26
4
6
4
11
4
226
3
234
3
243
3
8
4
11
4
8
4
251
3
253
3
212
3
198
3
193
3
203
3
211
3
230
3
244
3
238
3
222
3
212
3
208
3
214
3
213
3
215
3
205
3
209
3
218
3
212
3
216
3
218
3
206
3
209
3
202
3
202
3
209
3
224
3
226
3
244
3
0
4
3
4
11
4
10
4
22
4
23
4
34
4
26
4
4
4
1
4
3
4
254
3
3
4
252
3
218
3
210
3
211
3
211
3
215
3
219
3
224
3
230
3
232
3
231
3
242
3
242
3
252
3
3
4
13
4
16
4
22
4
6
4
8
4
27
4
36
4
42
4
30
4
22
4
8
4
14
4
28
4
38
4
50
4
38
4
31
4
47
4
51
4
56
4
58
4
45
4
52
4
86
4
102
4
132
4
155
4
225
4
105
5
3
6
151
6
229
6
194
6
96
6
197
5
203
4
155
3
98
2
114
1
220
0
218
0
35
1
118
1
194
1
2
2
75
2
153
2
14
3
112
3
193
3
247
3
52
4
86
4
91
4
85
4
94
4
88
4
82
4
91
4
107
4
111
4
131
4
142
4
116
4
108
4
107
4
101
4
91
4
123
4
154
4
165
4
155
4
150
4
150
4
155
4
166
4
179
4
174
4
167
4
176
4
184
4
177
4
182
4
190
4
191
4
196
4
211
4
211
4
199
4
208
4
218
4
230
4
242
4
239
4
251
4
247
4
246
4
1
5
11
5
16
5
17
5
30
5
42
5
48
5
46
5
47
5
76
5
99
5
115
5
112
5
107
5
106
5
106
5
114
5
119
5
138
5
154
5
154
5
162
5
158
5
170
5
164
5
183
5
198
5
198
5
214
5
216
5
203
5
195
5
191
5
181
5
182
5
179
5
174
5
155
5
142
5
118
5
102
5
75
5
53
5
22
5
2
5
234
4
208
4
176
4
145
4
122
4
80
4
49
4
22
4
240
3
202
3
186
3
154
3
134
3
147
3
162
3
178
3
178
3
168
3
168
3
166
3
161
3
164
3
155
3
146
3
134
3
131
3
141
3
134
3
131
3
139
3
140
3
143
3
146
3
148
3
154
3
149
3
148
3
162
3
158
3
151
3
159
3
160
3
159
3
166
3
168
3
178
3
171
3
176
3
184
3
182
3
174
3
186
3
194
3
190
3
182
3
191
3
189
3
194
3
194
3
182
3
178
3
191
3
206
3
212
3
219
3
218
3
222
3
208
3
202
3
198
3
198
3
197
3
201
3
198
3
200
3
190
3
186
3
184
3
180
3
186
3
202
3
195
3
170
3
168
3
164
3
171
3
171
3
168
3
175
3
180
3
168
3
166
3
150
3
152
3
170
3
154
3
153
3
139
3
132
3
158
3
174
3
174
3
173
3
167
3
154
3
155
3
166
3
170
3
178
3
170
3
144
3
156
3
160
3
168
3
155
3
152
3
158
3
160
3
158
3
155
3
148
3
155
3
162
3
176
3
186
3
184
3
170
3
170
3
163
3
168
3
170
3
174
3
176
3
186
3
202
3
194
3
194
3
182
3
164
3
170
3
162
3
172
3
183
3
189
3
174
3
182
3
187
3
190
3
192
3
179
3
162
3
166
3
196
3
234
3
238
3
228
3
222
3
227
3
214
3
216
3
234
3
227
3
204
3
218
3
207
3
210
3
222
3
248
3
3
4
2
4
247
3
233
3
218
3
227
3
223
3
226
3
221
3
231
3
230
3
231
3
225
3
226
3
216
3
214
3
226
3
212
3
204
3
218
3
226
3
226
3
224
3
219
3
223
3
225
3
208
3
210
3
222
3
230
3
228
3
223
3
219
3
208
3
200
3
190
3
184
3
194
3
210
3
223
3
218
3
216
3
198
3
195
3
199
3
194
3
200
3
202
3
202
3
214
3
230
3
238
3
250
3
231
3
233
3
247
3
2
4
3
4
254
3
250
3
3
4
254
3
239
3
225
3
219
3
214
3
195
3
200
3
180
3
172
3
176
3
176
3
173
3
155
3
138
3
128
3
145
3
153
3
150
3
143
3
142
3
154
3
142
3
138
3
138
3
143
3
160
3
151
3
143
3
143
3
152
3
158
3
152
3
147
3
139
3
140
3
149
3
166
3
170
3
158
3
163
3
171
3
190
3
230
3
5
4
26
4
83
4
168
4
35
5
166
5
14
6
39
6
211
5
89
5
127
4
155
3
144
2
173
1
10
1
176
0
228
0
58
1
156
1
207
1
3
2
67
2
150
2
254
2
88
3
154
3
211
3
6
4
26
4
30
4
28
4
22
4
43
4
58
4
48
4
51
4
55
4
53
4
58
4
62
4
78
4
88
4
69
4
69
4
87
4
92
4
103
4
90
4
83
4
78
4
91
4
126
4
119
4
102
4
92
4
101
4
112
4
114
4
113
4
122
4
122
4
131
4
124
4
123
4
131
4
138
4
126
4
123
4
142
4
154
4
154
4
167
4
171
4
170
4
166
4
184
4
185
4
195
4
210
4
218
4
234
4
241
4
242
4
254
4
253
4
6
5
22
5
35
5
41
5
50
5
63
5
77
5
87
5
102
5
110
5
106
5
106
5
106
5
112
5
116
5
122
5
123
5
114
5
123
5
150
5
162
5
152
5
130
5
107
5
109
5
99
5
73
5
58
5
43
5
34
5
6
5
243
4
186
4
168
4
154
4
120
4
85
4
59
4
51
4
33
4
18
4
1
4
236
3
222
3
204
3
200
3
195
3
195
3
187
3
179
3
172
3
155
3
150
3
130
3
106
3
83
3
77
3
84
3
70
3
74
3
86
3
123
3
147
3
158
3
171
3
169
3
170
3
171
3
168
3
160
3
163
3
170
3
169
3
175
3
190
3
200
3
195
3
174
3
170
3
183
3
191
3
178
3
175
3
169
3
166
3
147
3
138
3
122
3
127
3
134
3
134
3
131
3
136
3
137
3
142
3
147
3
142
3
155
3
158
3
158
3
155
3
161
3
154
3
152
3
153
3
146
3
155
3
156
3
142
3
139
3
155
3
138
3
134
3
117
3
116
3
130
3
144
3
151
3
146
3
142
3
150
3
139
3
152
3
162
3
162
3
136
3
125
3
131
3
150
3
134
3
151
3
146
3
134
3
123
3
124
3
127
3
146
3
160
3
156
3
159
3
154
3
158
3
167
3
163
3
162
3
166
3
158
3
172
3
185
3
200
3
34
4
46
4
40
4
18
4
254
3
238
3
248
3
242
3
213
3
189
3
177
3
151
3
143
3
139
3
132
3
125
3
126
3
114
3
114
3
115
3
99
3
116
3
146
3
163
3
143
3
138
3
106
3
64
3
26
3
15
3
44
3
59
3
57
3
68
3
90
3
89
3
76
3
66
3
52
3
38
3
47
3
50
3
55
3
51
3
55
3
36
3
55
3
59
3
56
3
66
3
69
3
71
3
70
3
63
3
54
3
64
3
56
3
65
3
82
3
82
3
90
3
95
3
96
3
94
3
94
3
97
3
112
3
118
3
115
3
105
3
90
3
74
3
66
3
72
3
72
3
58
3
67
3
74
3
75
3
82
3
90
3
76
3
87
3
86
3
92
3
90
3
94
3
88
3
90
3
83
3
80
3
86
3
86
3
82
3
71
3
99
3
95
3
91
3
112
3
107
3
123
3
128
3
123
3
131
3
148
3
167
3
166
3
170
3
161
3
171
3
171
3
168
3
163
3
155
3
138
3
126
3
108
3
111
3
110
3
108
3
98
3
94
3
86
3
77
3
78
3
72
3
78
3
66
3
65
3
70
3
74
3
70
3
66
3
50
3
57
3
54
3
39
3
51
3
62
3
53
3
59
3
70
3
70
3
52
3
40
3
31
3
29
3
11
3
248
2
237
2
16
3
34
3
70
3
106
3
109
3
107
3
166
3
29
4
182
4
58
5
92
5
18
5
158
4
216
3
7
3
240
1
14
1
103
0
18
0
56
0
117
0
214
0
0
1
39
1
102
1
189
1
47
2
137
2
194
2
239
2
28
3
43
3
45
3
48
3
46
3
61
3
65
3
70
3
60
3
66
3
86
3
83
3
80
3
87
3
88
3
97
3
95
3
86
3
72
3
88
3
100
3
98
3
96
3
88
3
84
3
82
3
79
3
86
3
91
3
82
3
86
3
87
3
90
3
80
3
80
3
94
3
82
3
59
3
80
3
100
3
114
3
107
3
110
3
120
3
118
3
124
3
126
3
119
3
130
3
150
3
167
3
166
3
174
3
182
3
188
3
202
3
216
3
231
3
235
3
8
4
31
4
27
4
33
4
45
4
42
4
32
4
50
4
47
4
59
4
74
4
90
4
89
4
101
4
118
4
120
4
126
4
123
4
114
4
111
4
106
4
107
4
112
4
111
4
86
4
48
4
34
4
2
4
236
3
215
3
205
3
174
3
154
3
120
3
110
3
79
3
59
3
35
3
22
3
0
3
238
2
246
2
224
2
185
2
175
2
152
2
160
2
171
2
177
2
167
2
150
2
166
2
178
2
183
2
180
2
170
2
174
2
165
2
146
2
151
2
148
2
166
2
167
2
137
2
116
2
114
2
129
2
128
2
152
2
152
2
157
2
160
2
132
2
148
2
131
2
142
2
168
2
183
2
162
2
151
2
171
2
177
2
184
2
168
2
170
2
170
2
155
2
145
2
154
2
159
2
184
2
186
2
187
2
176
2
168
2
171
2
177
2
186
2
187
2
190
2
180
2
182
2
202
2
184
2
186
2
171
2
174
2
185
2
202
2
220
2
215
2
199
2
204
2
203
2
206
2
194
2
186
2
188
2
196
2
186
2
177
2
187
2
179
2
171
2
166
2
183
2
219
2
222
2
215
2
214
2
199
2
187
2
198
2
208
2
227
2
203
2
195
2
178
2
186
2
230
2
251
2
216
2
213
2
230
2
230
2
241
2
250
2
3
3
250
2
7
3
3
3
2
3
255
2
244
2
246
2
255
2
251
2
2
3
11
3
0
3
253
2
19
3
16
3
11
3
22
3
25
3
30
3
30
3
6
3
2
3
18
3
35
3
67
3
66
3
69
3
74
3
51
3
49
3
72
3
87
3
80
3
68
3
77
3
67
3
69
3
91
3
82
3
72
3
62
3
50
3
48
3
58
3
59
3
73
3
89
3
99
3
92
3
105
3
101
3
103
3
96
3
83
3
40
3
48
3
56
3
88
3
118
3
124
3
119
3
116
3
114
3
87
3
67
3
62
3
21
3
30
3
81
3
134
3
171
3
168
3
160
3
162
3
146
3
108
3
114
3
123
3
94
3
79
3
92
3
146
3
170
3
171
3
175
3
190
3
203
3
189
3
174
3
155
3
152
3
165
3
189
3
208
3
208
3
200
3
193
3
199
3
206
3
215
3
238
3
233
3
236
3
254
3
10
4
16
4
24
4
26
4
44
4
35
4
28
4
34
4
30
4
38
4
16
4
30
4
32
4
19
4
31
4
30
4
22
4
19
4
253
3
232
3
2
4
21
4
246
3
6
4
11
4
20
4
38
4
32
4
25
4
30
4
24
4
28
4
35
4
32
4
26
4
26
4
26
4
26
4
38
4
42
4
22
4
42
4
38
4
38
4
39
4
42
4
58
4
48
4
38
4
72
4
115
4
138
4
128
4
160
4
20
5
158
5
67
6
154
6
140
6
26
6
138
5
141
4
154
3
140
2
201
1
78
1
58
1
144
1
227
1
40
2
95
2
160
2
250
2
79
3
190
3
6
4
80
4
131
4
141
4
151
4
154
4
150
4
150
4
171
4
162
4
154
4
158
4
160
4
161
4
176
4
179
4
176
4
194
4
218
4
217
4
208
4
164
4
124
4
131
4
152
4
179
4
211
4
209
4
157
4
131
4
171
4
201
4
186
4
175
4
208
4
251
4
2
5
250
4
2
5
251
4
244
4
247
4
243
4
253
4
3
5
10
5
14
5
16
5
27
5
33
5
38
5
51
5
59
5
68
5
67
5
65
5
62
5
66
5
61
5
106
5
144
5
146
5
160
5
178
5
185
5
176
5
160
5
137
5
139
5
182
5
236
5
19
6
24
6
25
6
32
6
18
6
13
6
11
6
14
6
16
6
16
6
23
6
13
6
7
6
250
5
232
5
234
5
202
5
186
5
174
5
154
5
110
5
78
5
58
5
29
5
248
4
213
4
194
4
166
4
130
4
88
4
98
4
111
4
70
4
62
4
47
4
29
4
23
4
26
4
28
4
18
4
2
4
248
3
246
3
238
3
236
3
242
3
252
3
239
3
219
3
212
3
206
3
207
3
201
3
204
3
210
3
215
3
226
3
222
3
195
3
144
3
158
3
203
3
220
3
226
3
207
3
208
3
218
3
216
3
218
3
219
3
211
3
212
3
210
3
210
3
211
3
222
3
218
3
212
3
219
3
232
3
232
3
238
3
231
3
226
3
231
3
212
3
189
3
182
3
194
3
221
3
242
3
241
3
4
4
239
3
214
3
202
3
199
3
211
3
222
3
227
3
203
3
193
3
194
3
185
3
176
3
187
3
194
3
195
3
198
3
203
3
219
3
195
3
191
3
202
3
219
3
210
3
202
3
210
3
207
3
207
3
203
3
202
3
206
3
187
3
179
3
182
3
191
3
202
3
211
3
210
3
198
3
199
3
202
3
202
3
202
3
210
3
210
3
211
3
214
3
206
3
184
3
178
3
160
3
159
3
154
3
152
3
165
3
170
3
160
3
160
3
183
3
178
3
186
3
195
3
189
3
168
3
178
3
181
3
160
3
162
3
183
3
209
3
218
3
208
3
200
3
199
3
191
3
179
3
171
3
171
3
170
3
179
3
168
3
178
3
187
3
179
3
179
3
187
3
171
3
162
3
146
3
145
3
164
3
178
3
170
3
166
3
174
3
174
3
182
3
194
3
178
3
180
3
187
3
210
3
200
3
186
3
187
3
193
3
187
3
191
3
190
3
206
3
193
3
186
3
171
3
174
3
178
3
198
3
191
3
182
3
178
3
177
3
194
3
202
3
219
3
222
3
218
3
205
3
197
3
203
3
194
3
186
3
187
3
200
3
210
3
214
3
200
3
186
3
195
3
201
3
220
3
235
3
248
3
7
4
20
4
43
4
50
4
59
4
62
4
65
4
64
4
72
4
54
4
46
4
57
4
64
4
59
4
48
4
42
4
22
4
7
4
230
3
236
3
254
3
17
4
26
4
11
4
240
3
231
3
224
3
222
3
210
3
211
3
224
3
246
3
9
4
14
4
22
4
6
4
254
3
5
4
19
4
5
4
254
3
251
3
247
3
251
3
248
3
254
3
5
4
243
3
246
3
243
3
232
3
228
3
248
3
29
4
76
4
142
4
180
4
6
5
151
5
41
6
160
6
214
6
126
6
8
6
64
5
71
4
36
3
43
2
106
1
0
1
34
1
140
1
222
1
20
2
69
2
124
2
203
2
43
3
143
3
203
3
250
3
42
4
72
4
96
4
100
4
122
4
128
4
133
4
144
4
147
4
136
4
146
4
141
4
134
4
136
4
127
4
106
4
106
4
86
4
96
4
96
4
82
4
100
4
119
4
112
4
98
4
87
4
106
4
110
4
111
4
121
4
140
4
142
4
165
4
182
4
170
4
168
4
167
4
184
4
194
4
211
4
219
4
202
4
194
4
219
4
233
4
231
4
226
4
224
4
213
4
230
4
215
4
206
4
230
4
240
4
243
4
248
4
17
5
24
5
30
5
14
5
22
5
58
5
70
5
77
5
107
5
136
5
151
5
134
5
162
5
156
5
170
5
155
5
169
5
178
5
178
5
176
5
166
5
160
5
179
5
190
5
175
5
161
5
154
5
143
5
133
5
122
5
90
5
48
5
35
5
14
5
241
4
210
4
180
4
136
4
114
4
80
4
55
4
48
4
32
4
247
3
238
3
212
3
158
3
146
3
158
3
164
3
198
3
194
3
198
3
231
3
237
3
224
3
218
3
218
3
203
3
187
3
171
3
159
3
168
3
171
3
173
3
171
3
163
3
159
3
155
3
162
3
173
3
182
3
189
3
177
3
174
3
158
3
144
3
153
3
181
3
187
3
202
3
217
3
186
3
186
3
174
3
184
3
195
3
198
3
204
3
210
3
212
3
192
3
186
3
194
3
212
3
219
3
213
3
192
3
203
3
209
3
218
3
233
3
225
3
222
3
224
3
219
3
205
3
202
3
203
3
194
3
194
3
190
3
194
3
210
3
208
3
215
3
218
3
212
3
221
3
226
3
227
3
226
3
227
3
208
3
202
3
222
3
215
3
207
3
210
3
203
3
202
3
195
3
190
3
188
3
200
3
202
3
200
3
199
3
194
3
184
3
198
3
202
3
213
3
210
3
216
3
212
3
199
3
214
3
212
3
226
3
222
3
195
3
212
3
193
3
200
3
204
3
190
3
206
3
206
3
205
3
187
3
204
3
215
3
231
3
225
3
224
3
226
3
215
3
225
3
216
3
216
3
230
3
246
3
235
3
242
3
233
3
0
4
249
3
238
3
238
3
236
3
217
3
239
3
244
3
250
3
244
3
252
3
246
3
250
3
247
3
4
4
40
4
44
4
56
4
64
4
47
4
36
4
2
4
248
3
241
3
1
4
243
3
6
4
18
4
12
4
24
4
27
4
18
4
4
4
15
4
18
4
7
4
3
4
8
4
4
4
250
3
233
3
218
3
219
3
216
3
192
3
202
3
208
3
214
3
225
3
10
4
38
4
51
4
16
4
214
3
179
3
157
3
167
3
179
3
179
3
218
3
227
3
254
3
246
3
248
3
238
3
246
3
13
4
26
4
20
4
23
4
22
4
8
4
22
4
27
4
45
4
47
4
56
4
67
4
80
4
54
4
35
4
35
4
59
4
68
4
40
4
9
4
8
4
251
3
251
3
27
4
32
4
35
4
41
4
55
4
54
4
42
4
35
4
45
4
55
4
58
4
74
4
105
4
118
4
150
4
200
4
59
5
186
5
82
6
150
6
169
6
86
6
207
5
235
4
223
3
209
2
237
1
86
1
54
1
132
1
226
1
32
2
70
2
101
2
187
2
22
3
151
3
248
3
25
4
62
4
86
4
90
4
101
4
106
4
114
4
108
4
122
4
130
4
116
4
107
4
110
4
110
4
122
4
130
4
140
4
147
4
154
4
137
4
123
4
130
4
134
4
135
4
123
4
117
4
110
4
107
4
98
4
99
4
98
4
103
4
103
4
111
4
110
4
122
4
137
4
138
4
158
4
167
4
150
4
155
4
160
4
170
4
178
4
188
4
198
4
219
4
222
4
223
4
230
4
235
4
246
4
18
5
35
5
53
5
51
5
56
5
73
5
94
5
107
5
120
5
134
5
143
5
150
5
167
5
162
5
171
5
179
5
166
5
173
5
186
5
203
5
210
5
223
5
241
5
233
5
234
5
227
5
221
5
219
5
214
5
208
5
198
5
187
5
172
5
146
5
140
5
122
5
103
5
99
5
57
5
34
5
251
4
213
4
178
4
157
4
129
4
120
4
104
4
97
4
62
4
40
4
23
4
18
4
253
3
250
3
251
3
243
3
217
3
216
3
203
3
206
3
211
3
209
3
207
3
214
3
207
3
194
3
175
3
158
3
165
3
179
3
179
3
186
3
194
3
206
3
222
3
250
3
241
3
239
3
238
3
239
3
224
3
248
3
10
4
251
3
250
3
240
3
219
3
222
3
211
3
219
3
219
3
226
3
234
3
234
3
236
3
1
4
6
4
9
4
6
4
15
4
52
4
36
4
34
4
36
4
39
4
26
4
16
4
17
4
3
4
12
4
8
4
19
4
36
4
60
4
54
4
39
4
18
4
18
4
18
4
20
4
16
4
12
4
12
4
22
4
19
4
26
4
22
4
250
3
225
3
238
3
242
3
231
3
230
3
224
3
228
3
239
3
235
3
204
3
222
3
225
3
221
3
230
3
231
3
240
3
11
4
18
4
4
4
240
3
214
3
205
3
207
3
198
3
200
3
218
3
219
3
220
3
203
3
198
3
212
3
230
3
224
3
218
3
208
3
206
3
206
3
203
3
196
3
186
3
187
3
197
3
202
3
210
3
206
3
212
3
226
3
238
3
229
3
246
3
231
3
228
3
230
3
243
3
238
3
243
3
220
3
222
3
240
3
250
3
230
3
214
3
208
3
218
3
226
3
220
3
196
3
202
3
210
3
202
3
202
3
211
3
202
3
194
3
191
3
180
3
190
3
190
3
190
3
210
3
206
3
200
3
207
3
199
3
172
3
179
3
179
3
171
3
171
3
176
3
185
3
198
3
187
3
184
3
191
3
179
3
177
3
183
3
185
3
195
3
214
3
225
3
228
3
235
3
236
3
236
3
234
3
224
3
218
3
222
3
220
3
213
3
210
3
203
3
200
3
206
3
204
3
202
3
203
3
207
3
209
3
218
3
210
3
202
3
198
3
198
3
190
3
208
3
216
3
218
3
211
3
219
3
215
3
222
3
213
3
228
3
2
4
46
4
75
4
126
4
3
5
153
5
54
6
127
6
101
6
50
6
155
5
157
4
79
3
50
2
112
1
227
0
209
0
17
1
103
1
160
1
226
1
35
2
124
2
215
2
48
3
115
3
204
3
3
4
22
4
33
4
27
4
11
4
15
4
27
4
29
4
34
4
51
4
46
4
59
4
62
4
56
4
56
4
47
4
58
4
71
4
80
4
74
4
56
4
47
4
50
4
58
4
64
4
67
4
76
4
95
4
115
4
122
4
122
4
120
4
107
4
106
4
112
4
106
4
102
4
115
4
139
4
128
4
124
4
136
4
146
4
150
4
148
4
155
4
149
4
156
4
151
4
157
4
174
4
186
4
187
4
208
4
223
4
207
4
216
4
239
4
253
4
8
5
19
5
36
5
58
5
75
5
65
5
72
5
87
5
96
5
100
5
94
5
111
5
117
5
126
5
122
5
114
5
123
5
110
5
114
5
120
5
102
5
121
5
115
5
101
5
75
5
59
5
38
5
10
5
254
4
224
4
197
4
168
4
135
4
99
4
75
4
39
4
255
3
231
3
211
3
186
3
174
3
145
3
108
3
83
3
50
3
37
3
30
3
30
3
20
3
27
3
24
3
5
3
246
2
219
2
226
2
231
2
238
2
231
2
234
2
241
2
228
2
227
2
220
2
220
2
231
2
238
2
250
2
255
2
4
3
12
3
14
3
5
3
4
3
10
3
8
3
0
3
6
3
6
3
0
3
251
2
248
2
250
2
3
3
3
3
1
3
3
3
5
3
252
2
247
2
243
2
244
2
250
2
250
2
244
2
238
2
231
2
250
2
250
2
251
2
250
2
251
2
250
2
244
2
248
2
253
2
2
3
5
3
255
2
238
2
238
2
244
2
0
3
6
3
2
3
2
3
246
2
244
2
246
2
250
2
4
3
2
3
251
2
248
2
247
2
255
2
2
3
0
3
251
2
5
3
254
2
2
3
233
2
222
2
235
2
245
2
240
2
238
2
245
2
240
2
235
2
229
2
215
2
207
2
216
2
221
2
223
2
230
2
223
2
218
2
224
2
234
2
230
2
204
2
212
2
211
2
227
2
236
2
232
2
209
2
216
2
231
2
254
2
253
2
2
3
0
3
252
2
10
3
10
3
2
3
255
2
248
2
0
3
3
3
4
3
0
3
255
2
255
2
4
3
3
3
0
3
254
2
1
3
11
3
12
3
10
3
10
3
2
3
7
3
1
3
3
3
23
3
6
3
2
3
14
3
26
3
24
3
7
3
240
2
230
2
10
3
17
3
18
3
22
3
6
3
253
2
255
2
0
3
252
2
10
3
4
3
13
3
14
3
11
3
9
3
10
3
252
2
250
2
242
2
230
2
237
2
246
2
246
2
233
2
247
2
234
2
240
2
232
2
215
2
194
2
203
2
222
2
231
2
239
2
227
2
244
2
1
3
3
3
254
2
3
3
13
3
13
3
18
3
18
3
22
3
18
3
11
3
24
3
37
3
32
3
31
3
43
3
47
3
26
3
48
3
47
3
50
3
51
3
50
3
39
3
35
3
40
3
16
3
22
3
25
3
24
3
27
3
0
3
14
3
38
3
43
3
244
2
248
2
56
3
116
3
238
3
158
4
60
5
160
5
187
5
141
5
42
5
51
4
252
2
168
1
192
0
20
0
2
0
32
0
132
0
222
0
22
1
107
1
211
1
73
2
175
2
250
2
69
3
119
3
142
3
154
3
158
3
179
3
202
3
215
3
214
3
200
3
204
3
207
3
214
3
232
3
248
3
244
3
244
3
254
3
8
4
12
4
6
4
251
3
253
3
251
3
254
3
5
4
10
4
18
4
20
4
19
4
10
4
17
4
26
4
33
4
32
4
35
4
26
4
29
4
38
4
40
4
27
4
34
4
32
4
50
4
74
4
79
4
97
4
108
4
110
4
105
4
115
4
122
4
123
4
134
4
146
4
151
4
139
4
145
4
158
4
166
4
170
4
184
4
203
4
218
4
223
4
239
4
7
5
22
5
48
5
67
5
82
5
96
5
108
5
112
5
126
5
123
5
121
5
131
5
139
5
148
5
159
5
143
5
130
5
118
5
107
5
82
5
71
5
42
5
5
5
246
4
227
4
210
4
195
4
169
4
119
4
94
4
56
4
16
4
6
4
219
3
192
3
167
3
146
3
128
3
107
3
105
3
82
3
75
3
59
3
73
3
75
3
80
3
82
3
102
3
103
3
92
3
86
3
62
3
59
3
70
3
66
3
54
3
55
3
52
3
58
3
54
3
57
3
62
3
66
3
56
3
50
3
48
3
49
3
54
3
59
3
78
3
66
3
57
3
38
3
53
3
69
3
60
3
50
3
71
3
70
3
67
3
75
3
75
3
75
3
99
3
108
3
90
3
83
3
67
3
60
3
79
3
93
3
94
3
102
3
98
3
107
3
120
3
118
3
114
3
103
3
103
3
89
3
83
3
89
3
97
3
106
3
106
3
112
3
117
3
123
3
121
3
104
3
108
3
121
3
121
3
122
3
116
3
117
3
111
3
110
3
125
3
110
3
104
3
110
3
107
3
121
3
124
3
120
3
134
3
143
3
128
3
140
3
160
3
149
3
139
3
144
3
136
3
129
3
150
3
149
3
154
3
158
3
156
3
151
3
155
3
154
3
139
3
145
3
151
3
146
3
138
3
122
3
140
3
145
3
148
3
149
3
146
3
155
3
175
3
163
3
170
3
178
3
187
3
210
3
198
3
198
3
196
3
207
3
209
3
184
3
182
3
187
3
190
3
192
3
195
3
206
3
197
3
199
3
190
3
184
3
182
3
221
3
219
3
203
3
202
3
212
3
219
3
213
3
205
3
210
3
204
3
194
3
202
3
202
3
198
3
211
3
226
3
211
3
200
3
198
3
190
3
187
3
172
3
171
3
178
3
200
3
186
3
178
3
183
3
181
3
186
3
191
3
203
3
208
3
199
3
198
3
219
3
234
3
236
3
235
3
227
3
242
3
7
4
251
3
230
3
235
3
205
3
186
3
183
3
171
3
180
3
195
3
181
3
148
3
131
3
152
3
168
3
179
3
182
3
181
3
158
3
167
3
0
4
74
4
134
4
114
4
63
4
33
4
18
4
10
4
8
4
10
4
26
4
48
4
94
4
134
4
190
4
52
5
198
5
69
6
149
6
158
6
66
6
192
5
231
4
215
3
180
2
182
1
14
1
215
0
32
1
131
1
204
1
10
2
80
2
158
2
0
3
106
3
178
3
243
3
37
4
69
4
80
4
80
4
88
4
104
4
111
4
117
4
128
4
138
4
139
4
147
4
155
4
166
4
174
4
175
4
173
4
155
4
157
4
171
4
200
4
194
4
187
4
186
4
179
4
179
4
163
4
191
4
202
4
208
4
221
4
216
4
227
4
240
4
9
5
34
5
47
5
45
5
54
5
51
5
48
5
51
5
69
5
90
5
106
5
99
5
64
5
54
5
51
5
48
5
59
5
61
5
58
5
58
5
68
5
77
5
80
5
100
5
105
5
114
5
105
5
102
5
126
5
118
5
126
5
159
5
149
5
136
5
135
5
155
5
161
5
158
5
155
5
159
5
175
5
160
5
163
5
170
5
165
5
152
5
162
5
158
5
149
5
135
5
116
5
82
5
55
5
39
5
14
5
251
4
227
4
194
4
171
4
155
4
119
4
99
4
82
4
66
4
58
4
22
4
13
4
14
4
10
4
5
4
247
3
218
3
198
3
187
3
184
3
176
3
186
3
198
3
186
3
183
3
170
3
167
3
171
3
165
3
160
3
190
3
187
3
206
3
184
3
160
3
153
3
160
3
162
3
176
3
190
3
191
3
188
3
186
3
180
3
178
3
187
3
198
3
203
3
214
3
206
3
210
3
211
3
206
3
194
3
206
3
206
3
214
3
215
3
210
3
195
3
200
3
179
3
178
3
192
3
217
3
216
3
202
3
186
3
165
3
155
3
160
3
162
3
163
3
160
3
180
3
174
3
168
3
151
3
138
3
127
3
136
3
171
3
194
3
180
3
178
3
177
3
187
3
199
3
187
3
179
3
171
3
164
3
167
3
171
3
166
3
168
3
171
3
183
3
182
3
175
3
167
3
162
3
170
3
184
3
187
3
182
3
162
3
162
3
182
3
202
3
205
3
174
3
200
3
206
3
219
3
235
3
206
3
200
3
219
3
226
3
227
3
237
3
231
3
222
3
231
3
234
3
251
3
3
4
9
4
11
4
10
4
237
3
234
3
233
3
243
3
254
3
248
3
246
3
251
3
8
4
4
4
2
4
248
3
241
3
243
3
239
3
236
3
239
3
227
3
237
3
240
3
231
3
226
3
218
3
215
3
231
3
243
3
251
3
238
3
214
3
208
3
208
3
210
3
212
3
194
3
200
3
194
3
204
3
206
3
200
3
181
3
179
3
190
3
208
3
223
3
216
3
221
3
240
3
0
4
8
4
251
3
238
3
8
4
34
4
50
4
49
4
64
4
42
4
29
4
30
4
25
4
18
4
26
4
34
4
19
4
26
4
28
4
16
4
32
4
38
4
33
4
26
4
27
4
24
4
23
4
21
4
18
4
16
4
5
4
8
4
19
4
24
4
5
4
0
4
22
4
64
4
114
4
136
4
176
4
63
5
205
5
88
6
139
6
101
6
18
6
91
5
101
4
14
3
255
1
63
1
224
0
254
0
98
1
156
1
214
1
29
2
90
2
171
2
19
3
130
3
210
3
25
4
65
4
78
4
74
4
70
4
86
4
99
4
118
4
99
4
99
4
96
4
102
4
91
4
95
4
110
4
123
4
127
4
122
4
107
4
99
4
99
4
101
4
101
4
119
4
126
4
131
4
128
4
113
4
116
4
134
4
134
4
106
4
106
4
125
4
134
4
123
4
102
4
88
4
111
4
138
4
130
4
147
4
151
4
167
4
155
4
139
4
120
4
147
4
155
4
170
4
174
4
191
4
202
4
210
4
224
4
230
4
235
4
199
4
226
4
242
4
15
5
30
5
48
5
42
5
51
5
74
5
86
5
75
5
74
5
86
5
98
5
122
5
113
5
126
5
125
5
126
5
127
5
130
5
135
5
131
5
128
5
126
5
115
5
95
5
77
5
50
5
31
5
16
5
247
4
206
4
178
4
134
4
114
4
93
4
60
4
22
4
16
4
240
3
192
3
149
3
127
3
134
3
137
3
130
3
115
3
100
3
98
3
64
3
53
3
39
3
47
3
32
3
36
3
30
3
20
3
22
3
31
3
36
3
24
3
26
3
34
3
55
3
40
3
48
3
32
3
30
3
36
3
40
3
43
3
35
3
38
3
39
3
50
3
74
3
87
3
74
3
66
3
86
3
92
3
86
3
90
3
99
3
116
3
123
3
110
3
120
3
134
3
146
3
148
3
138
3
135
3
142
3
142
3
139
3
140
3
154
3
162
3
160
3
151
3
139
3
130
3
118
3
83
3
68
3
74
3
75
3
58
3
50
3
23
3
14
3
19
3
20
3
16
3
30
3
38
3
26
3
47
3
61
3
43
3
34
3
249
2
248
2
246
2
251
2
27
3
35
3
19
3
22
3
23
3
6
3
17
3
42
3
72
3
72
3
87
3
97
3
103
3
106
3
112
3
107
3
114
3
107
3
134
3
151
3
139
3
131
3
154
3
151
3
161
3
163
3
161
3
156
3
142
3
152
3
150
3
155
3
162
3
176
3
183
3
166
3
136
3
118
3
106
3
114
3
135
3
126
3
141
3
174
3
194
3
202
3
202
3
187
3
176
3
175
3
166
3
156
3
131
3
105
3
82
3
83
3
83
3
75
3
75
3
68
3
66
3
59
3
56
3
77
3
126
3
162
3
163
3
170
3
179
3
196
3
218
3
186
3
167
3
163
3
161
3
134
3
94
3
35
3
236
2
215
2
210
2
214
2
231
2
242
2
2
3
7
3
11
3
18
3
10
3
14
3
15
3
26
3
19
3
30
3
43
3
46
3
69
3
95
3
99
3
115
3
122
3
121
3
108
3
142
3
158
3
155
3
176
3
190
3
190
3
242
3
25
4
44
4
54
4
26
4
4
4
6
4
2
4
248
3
223
3
203
3
228
3
238
3
247
3
240
3
246
3
248
3
255
3
246
3
245
3
3
4
0
4
239
3
238
3
251
3
251
3
236
3
227
3
208
3
190
3
194
3
191
3
186
3
187
3
202
3
202
3
198
3
218
3
247
3
26
4
40
4
107
4
250
4
156
5
51
6
154
6
155
6
117
6
243
5
246
4
156
3
89
2
117
1
215
0
218
0
42
1
96
1
163
1
42
2
167
2
35
3
169
3
32
4
115
4
179
4
226
4
222
4
215
4
206
4
206
4
219
4
220
4
230
4
206
4
192
4
175
4
175
4
156
4
174
4
184
4
176
4
191
4
163
4
157
4
166
4
164
4
148
4
152
4
160
4
180
4
178
4
181
4
170
4
162
4
200
4
206
4
216
4
215
4
212
4
222
4
206
4
202
4
218
4
242
4
2
5
42
5
54
5
94
5
114
5
139
5
144
5
154
5
138
5
134
5
154
5
163
5
158
5
163
5
171
5
187
5
215
5
195
5
221
5
214
5
210
5
212
5
234
5
247
5
251
5
18
6
35
6
49
6
51
6
59
6
69
6
86
6
110
6
121
6
130
6
115
6
165
6
183
6
198
6
189
6
186
6
174
6
161
6
152
6
155
6
139
6
135
6
134
6
112
6
58
6
42
6
21
6
250
5
222
5
191
5
138
5
91
5
60
5
47
5
23
5
247
4
230
4
217
4
214
4
206
4
187
4
176
4
160
4
137
4
130
4
126
4
83
4
87
4
115
4
122
4
122
4
134
4
134
4
145
4
150
4
138
4
122
4
135
4
139
4
119
4
134
4
133
4
134
4
136
4
121
4
106
4
134
4
141
4
133
4
144
4
141
4
144
4
147
4
131
4
124
4
144
4
134
4
125
4
115
4
123
4
138
4
138
4
120
4
128
4
139
4
143
4
132
4
159
4
146
4
158
4
152
4
155
4
157
4
158
4
160
4
182
4
168
4
146
4
128
4
95
4
106
4
106
4
102
4
86
4
108
4
105
4
93
4
113
4
139
4
127
4
118
4
121
4
103
4
120
4
119
4
115
4
107
4
113
4
102
4
102
4
104
4
107
4
97
4
110
4
103
4
108
4
92
4
108
4
101
4
112
4
110
4
100
4
99
4
106
4
112
4
96
4
116
4
104
4
91
4
97
4
107
4
130
4
101
4
106
4
90
4
94
4
97
4
98
4
96
4
80
4
70
4
61
4
77
4
90
4
107
4
106
4
136
4
135
4
115
4
122
4
148
4
159
4
162
4
156
4
152
4
131
4
156
4
182
4
163
4
153
4
143
4
122
4
112
4
82
4
80
4
63
4
72
4
98
4
75
4
78
4
75
4
63
4
93
4
115
4
126
4
112
4
104
4
104
4
119
4
107
4
94
4
103
4
130
4
135
4
120
4
138
4
131
4
111
4
122
4
120
4
118
4
120
4
143
4
156
4
206
4
229
4
2
5
14
5
17
5
36
5
59
5
54
5
64
5
35
5
237
4
208
4
178
4
125
4
108
4
80
4
69
4
54
4
62
4
54
4
32
4
11
4
2
4
239
3
246
3
254
3
8
4
15
4
38
4
50
4
67
4
74
4
95
4
99
4
128
4
135
4
126
4
129
4
135
4
155
4
174
4
204
4
235
4
0
5
62
5
222
5
139
6
51
7
186
7
187
7
97
7
182
6
114
5
3
4
134
2
104
1
228
0
251
0
67
1
206
1
49
2
130
2
204
2
43
3
160
3
16
4
128
4
200
4
6
5
35
5
25
5
43
5
32
5
33
5
20
5
51
5
46
5
33
5
56
5
59
5
40
5
62
5
43
5
48
5
18
5
26
5
10
5
7
5
21
5
241
4
240
4
233
4
242
4
246
4
242
4
218
4
223
4
215
4
202
4
187
4
178
4
180
4
183
4
174
4
184
4
182
4
173
4
184
4
187
4
194
4
164
4
162
4
163
4
172
4
162
4
155
4
186
4
186
4
184
4
192
4
194
4
203
4
212
4
224
4
232
4
2
5
14
5
15
5
18
5
27
5
42
5
53
5
72
5
94
5
104
5
107
5
123
5
127
5
135
5
119
5
118
5
127
5
138
5
143
5
112
5
106
5
91
5
98
5
93
5
99
5
87
5
62
5
57
5
46
5
22
5
239
4
210
4
197
4
149
4
118
4
83
4
65
4
47
4
32
4
248
3
219
3
182
3
151
3
123
3
106
3
98
3
98
3
87
3
80
3
54
3
41
3
49
3
34
3
23
3
0
3
242
2
229
2
208
2
214
2
214
2
218
2
203
2
190
2
192
2
214
2
238
2
242
2
231
2
243
2
250
2
246
2
253
2
13
3
38
3
42
3
24
3
23
3
27
3
28
3
43
3
66
3
80
3
98
3
97
3
108
3
98
3
76
3
74
3
90
3
118
3
82
3
110
3
122
3
106
3
94
3
90
3
87
3
102
3
105
3
105
3
110
3
123
3
116
3
110
3
111
3
104
3
130
3
138
3
126
3
131
3
149
3
169
3
158
3
143
3
130
3
154
3
169
3
185
3
187
3
164
3
159
3
170
3
187
3
199
3
198
3
190
3
178
3
178
3
203
3
206
3
208
3
213
3
212
3
224
3
246
3
251
3
0
4
250
3
230
3
226
3
208
3
199
3
195
3
194
3
198
3
195
3
191
3
181
3
170
3
150
3
131
3
122
3
120
3
121
3
135
3
130
3
133
3
143
3
136
3
130
3
132
3
141
3
144
3
161
3
176
3
180
3
194
3
212
3
206
3
202
3
206
3
212
3
219
3
255
3
5
4
22
4
34
4
42
4
54
4
55
4
58
4
82
4
86
4
88
4
91
4
90
4
86
4
78
4
59
4
54
4
59
4
70
4
80
4
73
4
67
4
64
4
69
4
77
4
86
4
99
4
88
4
59
4
50
4
26
4
29
4
50
4
67
4
86
4
106
4
98
4
98
4
72
4
66
4
45
4
30
4
11
4
8
4
3
4
11
4
21
4
23
4
6
4
228
3
211
3
206
3
204
3
206
3
198
3
204
3
219
3
211
3
210
3
202
3
203
3
192
3
195
3
194
3
186
3
187
3
195
3
220
3
30
4
45
4
52
4
136
4
23
5
187
5
90
6
174
6
149
6
58
6
128
5
103
4
11
3
196
1
228
0
113
0
122
0
202
0
30
1
83
1
159
1
254
1
83
2
133
2
248
2
78
3
144
3
208
3
234
3
228
3
238
3
7
4
8
4
16
4
18
4
22
4
10
4
12
4
15
4
19
4
37
4
36
4
48
4
48
4
41
4
54
4
63
4
50
4
38
4
43
4
60
4
58
4
54
4
70
4
64
4
53
4
54
4
67
4
61
4
47
4
62
4
54
4
44
4
55
4
41
4
252
3
23
4
49
4
50
4
27
4
22
4
36
4
32
4
52
4
52
4
75
4
70
4
114
4
138
4
160
4
197
4
207
4
212
4
222
4
235
4
29
5
68
5
70
5
79
5
76
5
90
5
103
5
104
5
130
5
120
5
115
5
118
5
104
5
76
5
62
5
77
5
99
5
129
5
166
5
220
5
16
6
32
6
70
6
74
6
91
6
87
6
106
6
127
6
69
6
51
6
22
6
253
5
243
5
211
5
162
5
115
5
87
5
60
5
46
5
18
5
250
4
227
4
211
4
185
4
182
4
187
4
168
4
150
4
139
4
124
4
120
4
109
4
124
4
134
4
123
4
114
4
98
4
118
4
142
4
123
4
104
4
62
4
83
4
46
4
35
4
8
4
250
3
4
4
230
3
203
3
176
3
191
3
166
3
156
3
173
3
167
3
168
3
146
3
145
3
157
3
187
3
191
3
182
3
163
3
160
3
135
3
144
3
160
3
162
3
174
3
177
3
182
3
195
3
207
3
192
3
178
3
160
3
156
3
147
3
160
3
204
3
187
3
176
3
162
3
146
3
126
3
129
3
136
3
134
3
136
3
135
3
113
3
112
3
126
3
129
3
114
3
118
3
112
3
114
3
130
3
129
3
133
3
123
3
136
3
134
3
134
3
139
3
149
3
123
3
135
3
137
3
143
3
147
3
168
3
179
3
188
3
205
3
194
3
178
3
166
3
174
3
184
3
183
3
186
3
218
3
240
3
215
3
195
3
176
3
195
3
217
3
218
3
206
3
198
3
205
3
222
3
229
3
220
3
219
3
232
3
222
3
246
3
251
3
2
4
234
3
227
3
223
3
222
3
238
3
210
3
210
3
170
3
134
3
143
3
137
3
155
3
190
3
191
3
203
3
195
3
203
3
184
3
234
3
181
3
194
3
234
3
198
3
188
3
163
3
197
3
215
3
222
3
219
3
194
3
198
3
186
3
192
3
194
3
200
3
208
3
200
3
178
3
187
3
187
3
202
3
224
3
218
3
217
3
216
3
208
3
224
3
219
3
224
3
243
3
240
3
238
3
249
3
251
3
18
4
22
4
47
4
107
4
144
4
234
4
135
5
32
6
187
6
32
7
39
7
225
6
62
6
35
5
208
3
133
2
160
1
37
1
51
1
158
1
11
2
78
2
113
2
152
2
200
2
47
3
172
3
242
3
41
4
81
4
102
4
98
4
101
4
123
4
138
4
148
4
150
4
147
4
141
4
160
4
172
4
161
4
155
4
163
4
163
4
166
4
164
4
166
4
171
4
165
4
166
4
174
4
179
4
168
4
191
4
186
4
199
4
195
4
204
4
196
4
207
4
216
4
226
4
227
4
239
4
252
4
3
5
6
5
28
5
30
5
39
5
49
5
53
5
74
5
80
5
90
5
99
5
133
5
167
5
175
5
159
5
155
5
134
5
170
5
183
5
202
5
209
5
219
5
217
5
211
5
215
5
214
5
208
5
214
5
231
5
253
5
6
6
251
5
240
5
234
5
231
5
222
5
242
5
232
5
219
5
222
5
219
5
222
5
231
5
206
5
198
5
178
5
143
5
126
5
98
5
59
5
10
5
226
4
205
4
169
4
158
4
131
4
85
4
47
4
16
4
239
3
230
3
217
3
201
3
190
3
176
3
148
3
131
3
142
3
144
3
123
3
115
3
74
3
90
3
105
3
104
3
91
3
72
3
90
3
83
3
78
3
62
3
63
3
63
3
81
3
98
3
93
3
78
3
98
3
107
3
104
3
110
3
103
3
96
3
91
3
99
3
100
3
115
3
118
3
128
3
159
3
162
3
149
3
147
3
136
3
124
3
133
3
138
3
158
3
176
3
165
3
142
3
135
3
143
3
156
3
146
3
153
3
151
3
161
3
150
3
151
3
146
3
132
3
128
3
128
3
112
3
130
3
112
3
113
3
118
3
114
3
104
3
88
3
87
3
84
3
61
3
71
3
86
3
81
3
75
3
72
3
76
3
66
3
76
3
73
3
38
3
46
3
57
3
82
3
99
3
86
3
74
3
78
3
76
3
99
3
79
3
51
3
39
3
244
2
206
2
217
2
231
2
240
2
240
2
225
2
236
2
226
2
229
2
254
2
14
3
10
3
19
3
22
3
7
3
242
2
250
2
0
3
23
3
41
3
59
3
50
3
54
3
62
3
59
3
78
3
111
3
115
3
95
3
131
3
135
3
151
3
156
3
164
3
166
3
169
3
154
3
165
3
177
3
191
3
179
3
173
3
181
3
182
3
182
3
176
3
159
3
172
3
163
3
148
3
154
3
146
3
153
3
160
3
161
3
148
3
132
3
130
3
126
3
124
3
131
3
116
3
124
3
130
3
148
3
142
3
147
3
140
3
148
3
174
3
164
3
164
3
158
3
156
3
152
3
143
3
133
3
144
3
131
3
120
3
105
3
107
3
116
3
120
3
114
3
112
3
108
3
110
3
108
3
88
3
94
3
121
3
110
3
87
3
76
3
76
3
96
3
92
3
96
3
102
3
116
3
136
3
154
3
206
3
84
4
2
5
164
5
52
6
99
6
60
6
220
5
3
5
199
3
72
2
28
1
63
0
0
0
54
0
150
0
233
0
39
1
104
1
173
1
247
1
82
2
172
2
243
2
45
3
92
3
109
3
104
3
102
3
103
3
101
3
93
3
106
3
116
3
124
3
135
3
136
3
149
3
139
3
127
3
134
3
145
3
129
3
124
3
133
3
127
3
136
3
139
3
133
3
143
3
139
3
132
3
140
3
153
3
142
3
140
3
142
3
151
3
164
3
171
3
168
3
168
3
167
3
172
3
156
3
169
3
173
3
177
3
195
3
193
3
175
3
170
3
173
3
185
3
209
3
220
3
244
3
241
3
224
3
238
3
7
4
28
4
20
4
18
4
22
4
36
4
45
4
53
4
64
4
82
4
96
4
106
4
103
4
116
4
140
4
158
4
142
4
136
4
147
4
133
4
129
4
134
4
125
4
129
4
119
4
101
4
94
4
87
4
80
4
68
4
39
4
8
4
248
3
219
3
169
3
144
3
127
3
92
3
56
3
59
3
4
3
222
2
194
2
168
2
128
2
131
2
112
2
97
2
95
2
89
2
68
2
73
2
77
2
72
2
61
2
72
2
72
2
55
2
34
2
44
2
51
2
56
2
76
2
64
2
72
2
84
2
74
2
69
2
88
2
90
2
84
2
77
2
79
2
98
2
72
2
91
2
120
2
108
2
92
2
84
2
96
2
110
2
116
2
120
2
138
2
126
2
117
2
124
2
117
2
116
2
125
2
120
2
128
2
129
2
129
2
133
2
139
2
136
2
130
2
129
2
125
2
137
2
134
2
136
2
144
2
138
2
144
2
137
2
148
2
140
2
148
2
143
2
132
2
128
2
143
2
153
2
156
2
163
2
172
2
172
2
181
2
176
2
181
2
193
2
209
2
204
2
214
2
225
2
222
2
226
2
236
2
233
2
239
2
223
2
216
2
211
2
213
2
238
2
242
2
1
3
244
2
241
2
228
2
233
2
242
2
9
3
4
3
17
3
36
3
40
3
43
3
36
3
30
3
37
3
16
3
8
3
19
3
20
3
36
3
17
3
253
2
254
2
22
3
20
3
28
3
26
3
21
3
34
3
35
3
48
3
56
3
46
3
36
3
36
3
39
3
40
3
44
3
37
3
37
3
37
3
47
3
44
3
36
3
43
3
28
3
8
3
18
3
9
3
4
3
18
3
4
3
8
3
10
3
12
3
5
3
18
3
12
3
22
3
34
3
37
3
33
3
37
3
33
3
45
3
42
3
33
3
40
3
64
3
65
3
52
3
41
3
17
3
52
3
64
3
46
3
40
3
22
3
16
3
45
3
68
3
76
3
60
3
71
3
73
3
73
3
71
3
52
3
73
3
62
3
61
3
60
3
75
3
88
3
81
3
103
3
132
3
165
3
254
3
156
4
60
5
213
5
60
6
64
6
7
6
144
5
168
4
111
3
45
2
61
1
110
0
66
0
130
0
231
0
41
1
72
1
160
1
237
1
101
2
192
2
232
2
38
3
102
3
156
3
181
3
185
3
174
3
175
3
190
3
204
3
196
3
203
3
189
3
188
3
217
3
232
3
228
3
223
3
216
3
198
3
215
3
196
3
188
3
203
3
197
3
181
3
197
3
196
3
188
3
209
3
217
3
217
3
195
3
208
3
207
3
207
3
217
3
220
3
222
3
244
3
221
3
203
3
232
3
1
4
2
4
254
3
244
3
0
4
16
4
253
3
14
4
20
4
40
4
71
4
76
4
92
4
115
4
125
4
113
4
126
4
144
4
143
4
138
4
140
4
136
4
138
4
148
4
156
4
160
4
148
4
145
4
195
4
217
4
204
4
190
4
189
4
206
4
230
4
223
4
220
4
203
4
188
4
170
4
139
4
144
4
152
4
179
4
136
4
113
4
111
4
85
4
48
4
253
3
220
3
221
3
202
3
148
3
128
3
115
3
85
3
85
3
90
3
69
3
60
3
54
3
40
3
29
3
43
3
36
3
28
3
42
3
44
3
40
3
43
3
31
3
20
3
23
3
33
3
40
3
39
3
28
3
28
3
31
3
28
3
48
3
47
3
33
3
36
3
35
3
55
3
76
3
83
3
93
3
120
3
110
3
117
3
92
3
91
3
108
3
113
3
115
3
112
3
108
3
117
3
116
3
124
3
139
3
132
3
124
3
124
3
124
3
125
3
130
3
120
3
116
3
115
3
100
3
88
3
92
3
84
3
100
3
117
3
116
3
109
3
99
3
92
3
92
3
99
3
102
3
116
3
119
3
116
3
108
3
91
3
81
3
92
3
93
3
77
3
78
3
61
3
70
3
73
3
71
3
65
3
52
3
66
3
52
3
29
3
47
3
76
3
81
3
76
3
58
3
56
3
58
3
60
3
48
3
43
3
41
3
53
3
83
3
69
3
70
3
71
3
85
3
80
3
79
3
84
3
97
3
90
3
73
3
76
3
82
3
57
3
56
3
82
3
88
3
76
3
71
3
80
3
79
3
82
3
72
3
80
3
99
3
100
3
89
3
91
3
73
3
77
3
94
3
95
3
88
3
95
3
92
3
70
3
82
3
89
3
88
3
114
3
119
3
112
3
111
3
97
3
85
3
77
3
77
3
73
3
83
3
69
3
54
3
61
3
60
3
60
3
70
3
66
3
64
3
69
3
81
3
112
3
107
3
108
3
96
3
115
3
142
3
148
3
141
3
159
3
184
3
207
3
196
3
180
3
170
3
157
3
168
3
182
3
173
3
164
3
171
3
142
3
144
3
155
3
159
3
181
3
199
3
200
3
184
3
187
3
193
3
200
3
219
3
209
3
217
3
218
3
200
3
206
3
222
3
212
3
228
3
18
4
40
4
85
4
195
4
117
5
44
6
183
6
248
6
6
7
229
6
52
6
36
5
175
3
113
2
140
1
15
1
33
1
133
1
234
1
33
2
84
2
150
2
222
2
49
3
111
3
169
3
232
3
38
4
68
4
57
4
39
4
12
4
12
4
18
4
8
4
4
4
247
3
249
3
8
4
2
4
255
3
4
4
253
3
4
4
13
4
15
4
20
4
40
4
93
4
121
4
124
4
91
4
97
4
56
4
47
4
24
4
24
4
2
4
4
4
20
4
25
4
14
4
12
4
25
4
36
4
52
4
51
4
57
4
94
4
115
4
93
4
100
4
123
4
127
4
136
4
147
4
168
4
212
4
219
4
223
4
246
4
7
5
241
4
4
5
47
5
64
5
70
5
78
5
85
5
84
5
93
5
116
5
132
5
147
5
144
5
168
5
181
5
164
5
174
5
179
5
176
5
180
5
173
5
169
5
165
5
162
5
164
5
152
5
158
5
124
5
102
5
79
5
48
5
28
5
255
4
229
4
204
4
178
4
134
4
112
4
103
4
92
4
84
4
69
4
52
4
32
4
7
4
222
3
232
3
243
3
236
3
223
3
199
3
188
3
182
3
160
3
137
3
140
3
133
3
132
3
121
3
118
3
133
3
156
3
170
3
165
3
180
3
207
3
223
3
244
3
7
4
5
4
12
4
23
4
24
4
24
4
18
4
25
4
36
4
37
4
48
4
60
4
47
4
21
4
253
3
7
4
252
3
236
3
211
3
196
3
192
3
190
3
169
3
166
3
143
3
127
3
148
3
166
3
148
3
132
3
122
3
120
3
96
3
67
3
72
3
88
3
89
3
73
3
60
3
58
3
41
3
60
3
71
3
56
3
57
3
79
3
53
3
60
3
71
3
74
3
95
3
117
3
125
3
140
3
150
3
127
3
128
3
115
3
84
3
76
3
83
3
66
3
68
3
73
3
92
3
108
3
98
3
80
3
92
3
87
3
100
3
116
3
135
3
153
3
172
3
182
3
184
3
212
3
211
3
200
3
188
3
178
3
176
3
173
3
189
3
164
3
168
3
197
3
200
3
220
3
205
3
196
3
200
3
225
3
232
3
220
3
203
3
184
3
184
3
183
3
208
3
204
3
186
3
159
3
172
3
178
3
164
3
164
3
169
3
162
3
140
3
135
3
153
3
168
3
177
3
188
3
188
3
178
3
176
3
196
3
191
3
159
3
176
3
215
3
212
3
228
3
239
3
244
3
236
3
17
4
36
4
29
4
37
4
62
4
52
4
64
4
72
4
94
4
99
4
78
4
72
4
71
4
53
4
44
4
41
4
16
4
8
4
6
4
5
4
14
4
32
4
12
4
24
4
32
4
24
4
20
4
41
4
41
4
38
4
47
4
47
4
53
4
43
4
37
4
49
4
57
4
45
4
46
4
65
4
47
4
52
4
65
4
65
4
62
4
67
4
71
4
62
4
77
4
61
4
20
4
6
4
25
4
41
4
66
4
33
4
25
4
49
4
36
4
64
4
91
4
89
4
101
4
166
4
21
5
188
5
82
6
164
6
174
6
91
6
212
5
192
4
163
3
68
2
17
1
103
0
66
0
152
0
23
1
104
1
172
1
0
2
65
2
148
2
11
3
105
3
180
3
3
4
52
4
70
4
71
4
88
4
96
4
97
4
89
4
100
4
103
4
97
4
104
4
117
4
125
4
133
4
134
4
116
4
110
4
117
4
132
4
132
4
143
4
148
4
156
4
151
4
120
4
128
4
147
4
157
4
174
4
182
4
164
4
158
4
178
4
221
4
244
4
251
4
224
4
224
4
253
4
13
5
28
5
32
5
56
5
64
5
50
5
25
5
12
5
15
5
12
5
24
5
22
5
20
5
26
5
18
5
17
5
12
5
23
5
17
5
48
5
64
5
56
5
36
5
43
5
69
5
76
5
66
5
60
5
72
5
87
5
100
5
125
5
122
5
124
5
100
5
98
5
100
5
100
5
103
5
100
5
95
5
83
5
63
5
52
5
42
5
16
5
4
5
243
4
204
4
168
4
158
4
121
4
80
4
50
4
21
4
12
4
236
3
196
3
168
3
163
3
148
3
124
3
102
3
69
3
72
3
71
3
61
3
48
3
50
3
23
3
0
3
3
3
1
3
13
3
32
3
17
3
5
3
6
3
4
3
249
2
247
2
248
2
9
3
22
3
28
3
15
3
29
3
20
3
12
3
7
3
16
3
24
3
2
3
13
3
22
3
30
3
36
3
32
3
38
3
40
3
49
3
53
3
53
3
44
3
57
3
56
3
65
3
71
3
73
3
76
3
71
3
57
3
72
3
64
3
63
3
57
3
66
3
68
3
78
3
82
3
62
3
45
3
46
3
48
3
40
3
30
3
20
3
17
3
9
3
249
2
4
3
15
3
30
3
48
3
47
3
36
3
44
3
42
3
6
3
1
3
7
3
12
3
16
3
53
3
40
3
252
2
249
2
4
3
220
2
214
2
212
2
220
2
224
2
237
2
229
2
227
2
205
2
181
2
165
2
177
2
184
2
197
2
200
2
204
2
196
2
174
2
172
2
171
2
174
2
164
2
169
2
158
2
172
2
165
2
160
2
172
2
178
2
165
2
160
2
158
2
158
2
144
2
175
2
191
2
180
2
175
2
158
2
153
2
154
2
157
2
168
2
194
2
172
2
157
2
163
2
166
2
189
2
207
2
188
2
189
2
177
2
164
2
172
2
187
2
204
2
201
2
207
2
204
2
212
2
224
2
236
2
242
2
247
2
244
2
240
2
231
2
218
2
238
2
18
3
13
3
239
2
227
2
228
2
252
2
26
3
31
3
40
3
47
3
24
3
36
3
38
3
56
3
76
3
87
3
80
3
80
3
79
3
52
3
68
3
73
3
60
3
68
3
70
3
93
3
97
3
89
3
76
3
76
3
79
3
80
3
88
3
90
3
94
3
96
3
101
3
101
3
104
3
119
3
116
3
104
3
119
3
118
3
124
3
133
3
141
3
188
3
230
3
60
4
196
4
71
5
206
5
29
6
10
6
164
5
249
4
243
3
212
2
180
1
236
0
103
0
94
0
173
0
17
1
101
1
167
1
237
1
64
2
186
2
36
3
125
3
206
3
245
3
24
4
47
4
45
4
29
4
23
4
28
4
52
4
67
4
61
4
52
4
63
4
69
4
72
4
82
4
100
4
95
4
106
4
141
4
114
4
85
4
65
4
56
4
83
4
76
4
84
4
106
4
93
4
102
4
133
4
124
4
110
4
111
4
108
4
112
4
111
4
84
4
100
4
134
4
153
4
156
4
157
4
145
4
156
4
167
4
157
4
176
4
179
4
191
4
206
4
215
4
214
4
236
4
251
4
4
5
29
5
47
5
13
5
5
5
33
5
52
5
97
5
119
5
125
5
168
5
199
5
188
5
184
5
199
5
200
5
212
5
227
5
236
5
246
5
3
6
8
6
221
5
207
5
212
5
223
5
235
5
236
5
236
5
225
5
216
5
192
5
158
5
129
5
109
5
87
5
44
5
24
5
255
4
217
4
196
4
181
4
144
4
121
4
110
4
88
4
56
4
35
4
41
4
30
4
23
4
6
4
4
4
41
4
36
4
5
4
10
4
6
4
252
3
254
3
13
4
36
4
47
4
13
4
10
4
20
4
40
4
49
4
75
4
97
4
92
4
99
4
104
4
116
4
119
4
127
4
132
4
155
4
159
4
188
4
213
4
204
4
192
4
195
4
223
4
220
4
231
4
220
4
232
4
234
4
228
4
239
4
246
4
237
4
236
4
241
4
228
4
236
4
237
4
222
4
228
4
235
4
248
4
244
4
247
4
244
4
232
4
224
4
212
4
218
4
215
4
217
4
220
4
227
4
229
4
241
4
251
4
241
4
244
4
247
4
233
4
204
4
195
4
209
4
220
4
243
4
220
4
208
4
215
4
217
4
222
4
231
4
228
4
220
4
209
4
213
4
228
4
198
4
206
4
196
4
207
4
204
4
200
4
205
4
205
4
220
4
222
4
208
4
208
4
225
4
230
4
248
4
11
5
1
5
8
5
35
5
30
5
22
5
58
5
45
5
49
5
43
5
29
5
49
5
45
5
56
5
44
5
15
5
44
5
32
5
11
5
6
5
248
4
255
4
240
4
209
4
211
4
212
4
209
4
230
4
248
4
252
4
243
4
240
4
248
4
243
4
245
4
248
4
255
4
248
4
1
5
19
5
4
5
28
5
15
5
244
4
236
4
219
4
196
4
200
4
219
4
184
4
204
4
231
4
221
4
248
4
239
4
224
4
228
4
237
4
248
4
254
4
251
4
12
5
30
5
47
5
44
5
4
5
251
4
244
4
250
4
14
5
246
4
246
4
251
4
4
5
8
5
5
5
0
5
4
5
11
5
0
5
4
5
27
5
36
5
36
5
35
5
31
5
32
5
34
5
44
5
52
5
42
5
38
5
48
5
59
5
80
5
120
5
129
5
191
5
52
6
205
6
84
7
188
7
231
7
164
7
38
7
55
6
24
5
212
3
213
2
20
2
213
1
43
2
132
2
188
2
253
2
52
3
120
3
195
3
28
4
93
4
185
4
237
4
12
5
23
5
20
5
28
5
35
5
36
5
29
5
32
5
31
5
16
5
15
5
21
5
24
5
18
5
12
5
13
5
11
5
8
5
0
5
243
4
245
4
0
5
247
4
1
5
8
5
2
5
4
5
4
5
19
5
28
5
28
5
23
5
30
5
24
5
37
5
44
5
36
5
26
5
25
5
54
5
82
5
92
5
94
5
115
5
133
5
168
5
208
5
228
5
8
6
39
6
64
6
113
6
163
6
190
6
220
6
247
6
0
7
14
7
32
7
31
7
30
7
30
7
40
7
64
7
75
7
72
7
84
7
87
7
88
7
78
7
79
7
100
7
106
7
135
7
117
7
128
7
131
7
136
7
140
7
142
7
116
7
116
7
122
7
100
7
72
7
46
7
16
7
240
6
199
6
140
6
100
6
91
6
60
6
36
6
14
6
244
5
206
5
207
5
212
5
164
5
134
5
121
5
150
5
119
5
72
5
37
5
37
5
24
5
44
5
42
5
36
5
28
5
245
4
212
4
206
4
199
4
148
4
128
4
131
4
124
4
121
4
142
4
120
4
100
4
96
4
86
4
88
4
91
4
94
4
96
4
102
4
88
4
76
4
70
4
86
4
125
4
130
4
140
4
128
4
134
4
145
4
95
4
79
4
76
4
78
4
65
4
40
4
40
4
47
4
29
4
14
4
18
4
12
4
244
3
245
3
228
3
236
3
246
3
237
3
221
3
203
3
209
3
180
3
203
3
222
3
233
3
219
3
4
4
30
4
47
4
92
4
100
4
111
4
144
4
188
4
199
4
204
4
216
4
227
4
222
4
220
4
206
4
198
4
213
4
229
4
236
4
204
4
179
4
164
4
166
4
175
4
180
4
174
4
149
4
142
4
164
4
170
4
165
4
196
4
199
4
212
4
204
4
170
4
182
4
240
4
194
4
206
4
136
4
135
4
129
4
128
4
99
4
95
4
116
4
111
4
112
4
30
4
18
4
24
4
8
4
7
4
244
3
4
4
10
4
4
4
248
3
0
4
253
3
24
4
23
4
29
4
21
4
45
4
52
4
40
4
59
4
54
4
46
4
53
4
56
4
68
4
71
4
72
4
64
4
81
4
88
4
100
4
79
4
57
4
73
4
79
4
81
4
86
4
77
4
60
4
76
4
101
4
116
4
108
4
103
4
100
4
104
4
125
4
116
4
142
4
133
4
125
4
104
4
99
4
81
4
84
4
97
4
88
4
64
4
77
4
80
4
84
4
91
4
70
4
44
4
23
4
16
4
0
4
251
3
220
3
214
3
191
3
177
3
132
3
134
3
116
3
104
3
111
3
129
3
144
3
173
3
204
3
216
3
241
3
241
3
222
3
203
3
156
3
152
3
155
3
156
3
164
3
150
3
166
3
206
3
245
3
24
4
157
4
55
5
235
5
95
6
152
6
126
6
25
6
62
5
68
4
226
2
208
1
25
1
192
0
0
1
105
1
177
1
0
2
65
2
123
2
195
2
52
3
130
3
163
3
206
3
255
3
221
3
196
3
208
3
227
3
208
3
204
3
215
3
244
3
4
4
18
4
40
4
64
4
86
4
95
4
116
4
125
4
128
4
144
4
133
4
124
4
144
4
135
4
161
4
174
4
183
4
196
4
197
4
189
4
185
4
192
4
185
4
188
4
196
4
209
4
221
4
193
4
165
4
168
4
173
4
170
4
177
4
177
4
181
4
168
4
169
4
179
4
184
4
204
4
195
4
196
4
180
4
199
4
193
4
216
4
242
4
220
4
217
4
222
4
233
4
212
4
209
4
232
4
216
4
225
4
196
4
164
4
163
4
165
4
164
4
178
4
184
4
157
4
153
4
141
4
112
4
138
4
159
4
140
4
163
4
152
4
143
4
151
4
156
4
152
4
141
4
120
4
92
4
53
4
16
4
244
3
211
3
181
3
156
3
125
3
81
3
41
3
29
3
16
3
4
3
239
2
220
2
188
2
190
2
180
2
175
2
185
2
188
2
175
2
162
2
154
2
156
2
163
2
164
2
164
2
162
2
143
2
142
2
150
2
152
2
173
2
201
2
208
2
212
2
222
2
233
2
252
2
13
3
20
3
17
3
18
3
21
3
28
3
27
3
28
3
36
3
30
3
16
3
34
3
43
3
52
3
68
3
67
3
52
3
41
3
47
3
44
3
52
3
50
3
63
3
76
3
74
3
52
3
40
3
41
3
44
3
37
3
21
3
216
2
209
2
203
2
198
2
217
2
231
2
252
2
253
2
3
3
241
2
229
2
226
2
231
2
245
2
250
2
244
2
228
2
242
2
233
2
244
2
39
3
52
3
64
3
71
3
40
3
29
3
54
3
14
3
236
2
241
2
236
2
250
2
247
2
240
2
240
2
247
2
0
3
240
2
219
2
216
2
209
2
222
2
236
2
252
2
255
2
0
3
237
2
250
2
4
3
232
2
245
2
240
2
12
3
247
2
32
3
0
3
18
3
44
3
52
3
27
3
0
3
232
2
236
2
2
3
30
3
23
3
252
2
12
3
35
3
28
3
52
3
39
3
4
3
12
3
249
2
229
2
237
2
251
2
7
3
244
2
250
2
236
2
224
2
219
2
221
2
207
2
226
2
204
2
184
2
182
2
168
2
174
2
163
2
156
2
165
2
167
2
173
2
164
2
175
2
185
2
192
2
207
2
201
2
192
2
215
2
216
2
217
2
242
2
9
3
8
3
5
3
29
3
53
3
71
3
80
3
76
3
59
3
52
3
65
3
87
3
84
3
88
3
84
3
70
3
78
3
98
3
88
3
100
3
114
3
124
3
118
3
114
3
109
3
108
3
127
3
135
3
153
3
139
3
108
3
144
3
175
3
172
3
173
3
178
3
233
3
24
4
47
4
148
4
44
5
192
5
68
6
156
6
103
6
253
5
84
5
99
4
5
3
209
1
2
1
125
0
124
0
214
0
54
1
145
1
201
1
254
1
72
2
187
2
14
3
96
3
177
3
220
3
252
3
11
4
238
3
216
3
206
3
217
3
221
3
233
3
236
3
244
3
235
3
249
3
249
3
234
3
245
3
12
4
235
3
214
3
223
3
233
3
238
3
252
3
254
3
224
3
225
3
231
3
221
3
224
3
246
3
4
4
252
3
242
3
233
3
232
3
238
3
240
3
248
3
6
4
230
3
252
3
1
4
254
3
8
4
14
4
20
4
22
4
18
4
22
4
52
4
71
4
68
4
84
4
91
4
101
4
100
4
103
4
121
4
161
4
182
4
161
4
169
4
183
4
164
4
156
4
203
4
205
4
221
4
213
4
193
4
175
4
194
4
188
4
184
4
181
4
181
4
164
4
151
4
142
4
113
4
90
4
80
4
56
4
53
4
28
4
12
4
1
4
4
4
224
3
211
3
183
3
172
3
166
3
140
3
128
3
110
3
108
3
88
3
75
3
84
3
101
3
135
3
152
3
180
3
186
3
121
3
141
3
157
3
169
3
160
3
151
3
132
3
136
3
138
3
118
3
136
3
187
3
208
3
4
4
41
4
82
4
112
4
123
4
180
4
204
4
230
4
200
4
168
4
139
4
94
4
28
4
22
4
238
3
192
3
160
3
140
3
112
3
98
3
56
3
32
3
251
2
228
2
201
2
210
2
213
2
201
2
203
2
182
2
180
2
205
2
206
2
232
2
244
2
209
2
232
2
2
3
229
2
10
3
5
3
44
3
72
3
75
3
81
3
100
3
99
3
116
3
128
3
151
3
181
3
177
3
183
3
176
3
176
3
213
3
191
3
172
3
195
3
180
3
181
3
173
3
188
3
174
3
179
3
184
3
188
3
188
3
200
3
201
3
202
3
197
3
185
3
187
3
188
3
196
3
193
3
174
3
188
3
155
3
150
3
158
3
175
3
180
3
168
3
191
3
184
3
174
3
173
3
165
3
168
3
175
3
176
3
188
3
185
3
196
3
188
3
190
3
200
3
212
3
210
3
197
3
204
3
178
3
180
3
184
3
182
3
196
3
188
3
182
3
142
3
104
3
107
3
108
3
101
3
90
3
76
3
54
3
39
3
28
3
29
3
37
3
22
3
4
3
19
3
12
3
16
3
255
2
20
3
1
3
1
3
6
3
252
2
239
2
252
2
252
2
13
3
236
2
220
2
242
2
5
3
4
3
42
3
28
3
4
3
251
2
0
3
5
3
9
3
0
3
8
3
37
3
33
3
32
3
35
3
252
2
232
2
250
2
246
2
229
2
243
2
230
2
224
2
231
2
222
2
221
2
231
2
225
2
232
2
245
2
1
3
246
2
253
2
229
2
228
2
224
2
233
2
4
3
245
2
233
2
224
2
231
2
233
2
5
3
26
3
20
3
37
3
61
3
92
3
100
3
138
3
184
3
52
4
224
4
144
5
16
6
82
6
63
6
24
6
143
5
84
4
216
2
125
1
108
0
0
0
39
0
165
0
241
0
64
1
152
1
228
1
70
2
166
2
233
2
43
3
110
3
156
3
160
3
136
3
128
3
135
3
180
3
198
3
210
3
225
3
237
3
227
3
236
3
252
3
39
4
45
4
52
4
67
4
52
4
88
4
131
4
129
4
111
4
106
4
124
4
156
4
167
4
165
4
148
4
149
4
134
4
104
4
103
4
95
4
108
4
119
4
108
4
116
4
134
4
108
4
108
4
97
4
109
4
124
4
134
4
125
4
116
4
134
4
132
4
136
4
166
4
164
4
148
4
151
4
193
4
206
4
225
4
241
4
248
4
19
5
24
5
44
5
55
5
73
5
88
5
96
5
92
5
110
5
139
5
153
5
174
5
163
5
145
5
156
5
185
5
196
5
200
5
187
5
229
5
216
5
214
5
198
5
172
5
163
5
180
5
164
5
158
5
172
5
110
5
62
5
44
5
24
5
18
5
252
4
220
4
166
4
132
4
145
4
133
4
61
4
20
4
29
4
25
4
20
4
219
3
213
3
184
3
178
3
172
3
153
3
171
3
160
3
153
3
111
3
116
3
136
3
143
3
126
3
109
3
91
3
94
3
116
3
79
3
72
3
89
3
117
3
121
3
92
3
114
3
110
3
120
3
107
3
100
3
100
3
122
3
120
3
136
3
145
3
134
3
144
3
151
3
144
3
128
3
121
3
132
3
150
3
151
3
156
3
144
3
149
3
156
3
148
3
125
3
149
3
136
3
154
3
157
3
126
3
127
3
110
3
124
3
43
3
73
3
56
3
82
3
77
3
76
3
87
3
69
3
57
3
51
3
45
3
44
3
251
2
4
3
48
3
20
3
6
3
22
3
31
3
20
3
40
3
22
3
10
3
14
3
50
3
84
3
44
3
30
3
31
3
28
3
32
3
36
3
25
3
39
3
40
3
36
3
19
3
246
2
237
2
239
2
236
2
233
2
239
2
244
2
238
2
29
3
25
3
9
3
30
3
12
3
5
3
11
3
20
3
20
3
14
3
232
2
242
2
7
3
232
2
16
3
32
3
17
3
12
3
246
2
182
2
136
2
155
2
157
2
140
2
138
2
140
2
168
2
183
2
216
2
248
2
33
3
20
3
76
3
102
3
94
3
125
3
139
3
104
3
80
3
115
3
121
3
172
3
187
3
213
3
222
3
238
3
224
3
204
3
214
3
245
3
236
3
249
3
245
3
240
3
218
3
221
3
216
3
225
3
213
3
206
3
203
3
188
3
188
3
229
3
5
4
4
4
11
4
13
4
22
4
39
4
32
4
12
4
5
4
1
4
232
3
231
3
216
3
192
3
178
3
159
3
165
3
199
3
200
3
212
3
195
3
180
3
164
3
163
3
213
3
236
3
234
3
193
3
205
3
243
3
232
3
228
3
207
3
223
3
228
3
229
3
205
3
228
3
35
4
80
4
136
4
3
5
152
5
44
6
115
6
28
6
184
5
229
4
228
3
208
2
142
1
170
0
20
0
52
0
125
0
229
0
59
1
125
1
189
1
55
2
214
2
76
3
115
3
172
3
188
3
227
3
243
3
238
3
20
4
3
4
242
3
250
3
232
3
235
3
234
3
243
3
249
3
19
4
74
4
69
4
50
4
65
4
51
4
77
4
73
4
84
4
100
4
83
4
42
4
59
4
60
4
53
4
50
4
42
4
39
4
89
4
144
4
111
4
117
4
103
4
64
4
49
4
82
4
107
4
103
4
120
4
131
4
141
4
160
4
163
4
165
4
210
4
230
4
220
4
203
4
203
4
7
5
80
5
84
5
88
5
126
5
139
5
171
5
242
5
68
6
126
6
120
6
70
6
109
6
166
6
175
6
180
6
182
6
152
6
139
6
142
6
127
6
119
6
102
6
90
6
85
6
88
6
80
6
57
6
83
6
111
6
124
6
99
6
71
6
80
6
68
6
39
6
14
6
234
5
182
5
156
5
127
5
85
5
53
5
3
5
220
4
202
4
158
4
106
4
43
4
14
4
4
4
230
3
226
3
224
3
244
3
234
3
218
3
202
3
225
3
224
3
200
3
178
3
127
3
86
3
75
3
54
3
14
3
15
3
255
2
244
2
226
2
210
2
162
2
163
2
162
2
164
2
149
2
122
2
100
2
106
2
122
2
141
2
194
2
173
2
149
2
158
2
140
2
142
2
146
2
129
2
108
2
66
2
62
2
84
2
87
2
96
2
75
2
48
2
25
2
199
1
200
1
203
1
222
1
211
1
201
1
170
1
170
1
160
1
142
1
91
1
92
1
144
1
147
1
86
1
26
1
63
1
82
1
66
1
39
1
16
1
226
0
226
0
200
0
140
0
163
0
145
0
70
0
3
0
1
0
0
0
3
0
1
0
86
0
174
0
189
0
160
0
122
0
137
0
136
0
81
0
96
0
138
0
146
0
140
0
146
0
166
0
161
0
240
0
27
1
20
1
28
1
22
1
16
1
26
1
55
1
97
1
166
1
186
1
189
1
214
1
222
1
224
1
228
1
206
1
160
1
148
1
153
1
154
1
154
1
146
1
133
1
92
1
96
1
105
1
156
1
133
1
112
1
104
1
103
1
123
1
153
1
151
1
117
1
148
1
191
1
228
1
218
1
187
1
166
1
166
1
144
1
120
1
128
1
155
1
153
1
149
1
183
1
191
1
202
1
218
1
203
1
199
1
230
1
251
1
252
1
2
2
0
2
18
2
38
2
34
2
36
2
34
2
35
2
42
2
30
2
27
2
18
2
31
2
18
2
22
2
50
2
38
2
24
2
62
2
80
2
102
2
91
2
94
2
106
2
155
2
203
2
234
2
58
3
189
3
94
4
230
4
65
5
50
5
166
4
234
3
231
2
1
2
210
0
0
0
3
0
1
0
0
0
3
0
1
0
12
0
78
0
171
0
28
1
151
1
0
2
52
2
50
2
88
2
102
2
136
2
145
2
143
2
144
2
179
2
174
2
162
2
160
2
130
2
144
2
146
2
149
2
163
2
180
2
194
2
218
2
212
2
180
2
183
2
198
2
210
2
199
2
201
2
208
2
195
2
195
2
190
2
202
2
222
2
235
2
235
2
226
2
208
2
215
2
230
2
250
2
254
2
248
2
246
2
10
3
14
3
37
3
38
3
11
3
16
3
40
3
50
3
59
3
75
3
34
3
45
3
58
3
66
3
80
3
114
3
127
3
121
3
131
3
142
3
141
3
160
3
148
3
153
3
179
3
184
3
174
3
187
3
208
3
199
3
210
3
209
3
198
3
195
3
193
3
184
3
187
3
190
3
197
3
187
3
176
3
138
3
130
3
106
3
82
3
48
3
8
3
7
3
10
3
254
2
202
2
198
2
182
2
148
2
119
2
83
2
46
2
43
2
24
2
30
2
22
2
11
2
246
1
243
1
240
1
244
1
10
2
7
2
222
1
235
1
211
1
212
1
227
1
227
1
218
1
214
1
219
1
220
1
215
1
207
1
214
1
219
1
224
1
226
1
219
1
211
1
218
1
214
1
229
1
232
1
235
1
245
1
255
1
24
2
19
2
6
2
254
1
10
2
254
1
243
1
252
1
20
2
30
2
26
2
42
2
55
2
70
2
68
2
90
2
62
2
36
2
34
2
52
2
71
2
82
2
80
2
84
2
79
2
70
2
62
2
69
2
62
2
68
2
79
2
96
2
97
2
90
2
78
2
66
2
55
2
58
2
62
2
59
2
66
2
68
2
73
2
71
2
76
2
66
2
73
2
80
2
88
2
82
2
78
2
99
2
91
2
87
2
91
2
72
2
58
2
74
2
45
2
31
2
47
2
76
2
64
2
86
2
78
2
100
2
83
2
81
2
100
2
119
2
103
2
79
2
53
2
54
2
94
2
83
2
80
2
86
2
74
2
82
2
98
2
115
2
99
2
98
2
106
2
97
2
86
2
95
2
107
2
102
2
103
2
113
2
89
2
80
2
75
2
71
2
75
2
70
2
79
2
70
2
60
2
66
2
71
2
61
2
62
2
67
2
69
2
56
2
63
2
82
2
108
2
123
2
113
2
105
2
123
2
134
2
141
2
145
2
150
2
146
2
154
2
165
2
180
2
187
2
175
2
180
2
182
2
163
2
159
2
163
2
162
2
152
2
154
2
155
2
166
2
171
2
179
2
186
2
186
2
182
2
178
2
182
2
176
2
178
2
195
2
205
2
208
2
213
2
210
2
244
2
27
3
35
3
89
3
233
3
136
4
28
5
160
5
179
5
63
5
178
4
198
3
180
2
119
1
121
0
0
0
3
0
0
0
24
0
115
0
178
0
234
0
66
1
152
1
10
2
107
2
176
2
212
2
250
2
25
3
42
3
27
3
32
3
58
3
78
3
66
3
51
3
65
3
41
3
61
3
93
3
84
3
75
3
67
3
6
3
17
3
59
3
65
3
97
3
99
3
86
3
56
3
54
3
76
3
83
3
82
3
65
3
58
3
58
3
67
3
70
3
86
3
83
3
80
3
87
3
94
3
94
3
91
3
98
3
110
3
118
3
121
3
117
3
126
3
151
3
152
3
174
3
167
3
166
3
163
3
170
3
176
3
206
3
206
3
222
3
242
3
3
4
7
4
30
4
42
4
45
4
54
4
59
4
66
4
90
4
82
4
95
4
106
4
118
4
104
4
98
4
108
4
115
4
122
4
112
4
110
4
107
4
105
4
90
4
67
4
52
4
30
4
27
4
14
4
250
3
206
3
179
3
147
3
126
3
86
3
48
3
51
3
37
3
238
2
203
2
213
2
196
2
192
2
162
2
154
2
147
2
142
2
153
2
150
2
137
2
110
2
97
2
104
2
94
2
115
2
121
2
118
2
117
2
90
2
84
2
89
2
103
2
102
2
99
2
110
2
104
2
91
2
84
2
100
2
110
2
120
2
122
2
131
2
120
2
113
2
119
2
131
2
148
2
142
2
111
2
124
2
139
2
152
2
146
2
150
2
173
2
176
2
184
2
186
2
171
2
181
2
174
2
164
2
174
2
180
2
195
2
198
2
198
2
195
2
214
2
209
2
198
2
184
2
178
2
184
2
191
2
173
2
192
2
171
2
200
2
214
2
210
2
187
2
162
2
170
2
168
2
166
2
178
2
176
2
183
2
194
2
200
2
198
2
187
2
177
2
202
2
190
2
187
2
180
2
199
2
216
2
219
2
224
2
220
2
221
2
206
2
194
2
196
2
187
2
179
2
192
2
214
2
198
2
202
2
208
2
208
2
214
2
230
2
224
2
239
2
247
2
249
2
0
3
231
2
206
2
184
2
199
2
186
2
207
2
239
2
245
2
243
2
230
2
208
2
194
2
208
2
202
2
196
2
219
2
214
2
218
2
211
2
211
2
226
2
238
2
219
2
220
2
224
2
206
2
230
2
234
2
250
2
7
3
19
3
11
3
248
2
2
3
17
3
38
3
62
3
63
3
62
3
39
3
15
3
22
3
18
3
8
3
16
3
7
3
251
2
10
3
19
3
32
3
46
3
45
3
51
3
66
3
56
3
43
3
11
3
246
2
241
2
2
3
26
3
40
3
50
3
43
3
20
3
241
2
27
3
91
3
140
3
170
3
250
3
135
4
20
5
178
5
252
5
242
5
160
5
222
4
202
3
83
2
26
1
115
0
37
0
64
0
198
0
16
1
32
1
74
1
139
1
240
1
102
2
188
2
238
2
249
2
33
3
94
3
134
3
134
3
128
3
111
3
124
3
127
3
142
3
152
3
203
3
203
3
182
3
190
3
206
3
200
3
206
3
206
3
205
3
235
3
199
3
168
3
168
3
175
3
149
3
132
3
142
3
146
3
136
3
123
3
142
3
182
3
195
3
198
3
182
3
214
3
214
3
198
3
191
3
186
3
218
3
231
3
249
3
3
4
248
3
224
3
231
3
14
4
22
4
46
4
63
4
89
4
104
4
123
4
102
4
86
4
110
4
133
4
125
4
146
4
175
4
197
4
235
4
243
4
227
4
219
4
202
4
209
4
239
4
8
5
251
4
240
4
19
5
41
5
58
5
34
5
26
5
38
5
250
4
3
5
235
4
230
4
234
4
206
4
198
4
180
4
139
4
77
4
86
4
82
4
66
4
22
4
251
3
206
3
190
3
170
3
129
3
110
3
94
3
99
3
94
3
102
3
98
3
67
3
70
3
56
3
64
3
40
3
37
3
44
3
37
3
32
3
61
3
29
3
7
3
9
3
25
3
22
3
18
3
43
3
47
3
47
3
17
3
11
3
9
3
38
3
50
3
47
3
43
3
55
3
52
3
63
3
58
3
56
3
62
3
102
3
88
3
103
3
115
3
90
3
70
3
56
3
46
3
83
3
99
3
118
3
115
3
132
3
112
3
103
3
104
3
114
3
95
3
83
3
102
3
122
3
106
3
132
3
139
3
151
3
128
3
98
3
70
3
66
3
87
3
106
3
113
3
150
3
122
3
95
3
78
3
100
3
77
3
98
3
109
3
100
3
88
3
54
3
62
3
74
3
102
3
76
3
59
3
48
3
70
3
32
3
32
3
50
3
75
3
72
3
58
3
96
3
93
3
64
3
47
3
73
3
65
3
87
3
83
3
82
3
99
3
54
3
67
3
32
3
41
3
62
3
114
3
104
3
85
3
104
3
88
3
99
3
98
3
90
3
93
3
155
3
102
3
72
3
38
3
51
3
92
3
114
3
114
3
88
3
67
3
87
3
94
3
74
3
0
3
14
3
43
3
44
3
50
3
67
3
53
3
48
3
79
3
78
3
66
3
71
3
32
3
30
3
62
3
51
3
34
3
42
3
56
3
43
3
26
3
29
3
38
3
75
3
76
3
98
3
123
3
158
3
133
3
86
3
79
3
76
3
106
3
118
3
130
3
144
3
136
3
124
3
134
3
103
3
114
3
135
3
118
3
110
3
102
3
98
3
103
3
127
3
120
3
107
3
131
3
100
3
111
3
123
3
128
3
106
3
142
3
137
3
146
3
123
3
96
3
104
3
142
3
209
3
252
3
110
4
33
5
191
5
66
6
114
6
43
6
250
5
249
4
151
3
67
2
49
1
170
0
123
0
162
0
30
1
83
1
114
1
182
1
26
2
145
2
2
3
78
3
141
3
171
3
191
3
218
3
226
3
227
3
208
3
11
4
246
3
245
3
19
4
30
4
27
4
22
4
19
4
19
4
16
4
27
4
32
4
16
4
16
4
41
4
34
4
34
4
15
4
25
4
71
4
51
4
58
4
88
4
106
4
82
4
82
4
133
4
118
4
119
4
115
4
95
4
135
4
133
4
134
4
162
4
156
4
150
4
111
4
139
4
142
4
158
4
179
4
174
4
203
4
218
4
193
4
206
4
230
4
12
5
18
5
14
5
253
4
24
5
19
5
22
5
50
5
81
5
92
5
106
5
106
5
136
5
119
5
123
5
131
5
159
5
150
5
156
5
147
5
166
5
164
5
166
5
149
5
175
5
176
5
184
5
176
5
159
5
143
5
122
5
118
5
91
5
42
5
19
5
248
4
248
4
226
4
194
4
131
4
102
4
82
4
58
4
27
4
250
3
220
3
200
3
179
3
170
3
170
3
173
3
180
3
186
3
160
3
128
3
118
3
78
3
89
3
99
3
112
3
110
3
90
3
117
3
134
3
135
3
124
3
74
3
71
3
84
3
76
3
123
3
125
3
117
3
126
3
127
3
116
3
118
3
135
3
161
3
194
3
152
3
136
3
117
3
122
3
112
3
160
3
149
3
148
3
154
3
154
3
137
3
123
3
147
3
151
3
178
3
186
3
208
3
187
3
166
3
164
3
152
3
170
3
174
3
167
3
154
3
153
3
150
3
148
3
170
3
174
3
163
3
169
3
154
3
153
3
148
3
166
3
203
3
196
3
151
3
99
3
102
3
126
3
156
3
180
3
178
3
156
3
149
3
138
3
130
3
158
3
158
3
147
3
147
3
147
3
166
3
146
3
143
3
166
3
176
3
179
3
175
3
174
3
186
3
199
3
167
3
152
3
135
3
109
3
126
3
139
3
161
3
182
3
171
3
190
3
199
3
180
3
162
3
170
3
188
3
179
3
171
3
176
3
166
3
170
3
139
3
146
3
174
3
171
3
163
3
183
3
198
3
199
3
177
3
159
3
166
3
155
3
128
3
86
3
134
3
152
3
156
3
158
3
137
3
148
3
142
3
147
3
126
3
118
3
154
3
169
3
202
3
195
3
182
3
186
3
190
3
214
3
208
3
212
3
232
3
211
3
190
3
192
3
218
3
222
3
207
3
182
3
184
3
203
3
187
3
190
3
201
3
218
3
239
3
225
3
194
3
155
3
145
3
182
3
222
3
196
3
186
3
199
3
195
3
215
3
227
3
215
3
223
3
237
3
246
3
3
4
29
4
130
4
51
5
222
5
121
6
251
6
231
6
148
6
206
5
134
4
210
2
87
1
120
0
46
0
134
0
22
1
120
1
154
1
224
1
45
2
118
2
246
2
92
3
179
3
249
3
24
4
50
4
59
4
72
4
57
4
59
4
62
4
66
4
67
4
48
4
64
4
70
4
94
4
96
4
96
4
96
4
112
4
100
4
99
4
78
4
59
4
104
4
107
4
98
4
94
4
102
4
131
4
122
4
126
4
112
4
97
4
122
4
130
4
148
4
146
4
124
4
116
4
134
4
141
4
156
4
183
4
174
4
175
4
170
4
160
4
180
4
206
4
232
4
0
5
14
5
238
4
201
4
190
4
227
4
19
5
18
5
11
5
22
5
51
5
86
5
95
5
103
5
99
5
84
5
118
5
134
5
126
5
118
5
138
5
148
5
158
5
160
5
165
5
171
5
171
5
162
5
166
5
171
5
171
5
198
5
189
5
150
5
139
5
128
5
110
5
94
5
55
5
251
4
203
4
170
4
154
4
110
4
88
4
67
4
35
4
7
4
244
3
226
3
190
3
154
3
138
3
134
3
116
3
123
3
107
3
101
3
83
3
78
3
71
3
63
3
56
3
46
3
72
3
96
3
106
3
96
3
63
3
68
3
63
3
34
3
34
3
47
3
42
3
55
3
83
3
75
3
48
3
62
3
59
3
47
3
64
3
82
3
95
3
72
3
46
3
60
3
74
3
85
3
83
3
118
3
114
3
85
3
65
3
55
3
58
3
75
3
90
3
84
3
71
3
82
3
90
3
93
3
98
3
101
3
95
3
90
3
89
3
94
3
88
3
74
3
83
3
75
3
72
3
91
3
86
3
80
3
66
3
56
3
68
3
80
3
69
3
74
3
67
3
70
3
74
3
55
3
46
3
41
3
26
3
33
3
49
3
78
3
91
3
87
3
74
3
66
3
48
3
51
3
46
3
56
3
70
3
81
3
91
3
102
3
85
3
76
3
89
3
74
3
92
3
114
3
102
3
102
3
86
3
56
3
80
3
106
3
105
3
102
3
87
3
66
3
68
3
87
3
106
3
127
3
115
3
66
3
55
3
58
3
66
3
77
3
99
3
130
3
119
3
98
3
103
3
80
3
87
3
68
3
88
3
80
3
78
3
67
3
71
3
62
3
97
3
122
3
102
3
86
3
103
3
120
3
138
3
130
3
96
3
82
3
103
3
122
3
132
3
158
3
160
3
163
3
174
3
182
3
174
3
166
3
179
3
176
3
170
3
170
3
187
3
198
3
198
3
143
3
152
3
155
3
138
3
147
3
147
3
167
3
162
3
144
3
142
3
152
3
102
3
131
1
159
1
58
2
161
2
235
2
19
3
77
3
154
3
219
3
8
4
103
4
22
5
183
5
91
6
247
6
248
6
152
6
6
6
219
4
114
3
207
1
160
0
22
0
19
0
138
0
6
1
89
1
170
1
251
1
88
2
198
2
62
3
148
3
218
3
30
4
58
4
64
4
89
4
98
4
116
4
111
4
86
4
38
4
54
4
66
4
90
4
98
4
92
4
106
4
128
4
106
4
87
4
75
4
76
4
90
4
104
4
118
4
112
4
114
4
94
4
91
4
87
4
102
4
106
4
118
4
119
4
139
4
151
4
149
4
163
4
168
4
167
4
187
4
208
4
184
4
174
4
175
4
181
4
192
4
208
4
232
4
240
4
227
4
226
4
250
4
14
5
22
5
25
5
35
5
35
5
38
5
51
5
66
5
85
5
111
5
131
5
150
5
166
5
145
5
131
5
139
5
155
5
177
5
185
5
182
5
176
5
160
5
163
5
190
5
200
5
191
5
196
5
206
5
214
5
203
5
171
5
171
5
159
5
154
5
138
5
99
5
71
5
23
5
244
4
208
4
190
4
172
4
154
4
108
4
72
4
38
4
8
4
11
4
6
4
251
3
191
3
150
3
136
3
124
3
134
3
139
3
138
3
145
3
146
3
114
3
98
3
96
3
101
3
107
3
104
3
105
3
122
3
120
3
118
3
99
3
91
3
98
3
98
3
102
3
118
3
130
3
147
3
144
3
154
3
137
3
131
3
139
3
138
3
152
3
155
3
163
3
154
3
140
3
139
3
159
3
184
3
187
3
199
3
183
3
176
3
178
3
184
3
178
3
174
3
184
3
198
3
194
3
202
3
202
3
204
3
194
3
171
3
164
3
171
3
184
3
186
3
197
3
202
3
167
3
165
3
187
3
226
3
238
3
207
3
185
3
171
3
160
3
159
3
170
3
191
3
188
3
176
3
139
3
135
3
142
3
154
3
163
3
187
3
174
3
152
3
162
3
150
3
148
3
138
3
151
3
155
3
158
3
173
3
183
3
181
3
175
3
178
3
167
3
180
3
170
3
182
3
183
3
190
3
191
3
203
3
186
3
195
3
219
3
203
3
172
3
179
3
184
3
187
3
195
3
192
3
182
3
178
3
190
3
215
3
217
3
198
3
178
3
162
3
151
3
150
3
142
3
152
3
179
3
175
3
177
3
176
3
164
3
165
3
174
3
176
3
174
3
183
3
184
3
186
3
194
3
191
3
199
3
210
3
222
3
231
3
232
3
222
3
206
3
203
3
200
3
214
3
242
3
249
3
235
3
235
3
219
3
226
3
222
3
219
3
211
3
242
3
245
3
245
3
235
3
242
3
244
3
0
4
242
3
238
3
246
3
246
3
2
4
10
4
2
4
17
4
14
4
254
3
254
3
3
4
15
4
17
4
50
4
62
4
90
4
158
4
43
5
212
5
118
6
243
6
0
7
198
6
75
6
25
5
187
3
8
2
2
1
134
0
129
0
228
0
83
1
175
1
229
1
51
2
119
2
212
2
71
3
158
3
216
3
23
4
51
4
59
4
59
4
74
4
100
4
94
4
84
4
92
4
94
4
89
4
96
4
104
4
94
4
87
4
95
4
111
4
105
4
107
4
109
4
112
4
122
4
138
4
146
4
150
4
140
4
131
4
130
4
141
4
148
4
166
4
178
4
170
4
150
4
140
4
148
4
168
4
172
4
176
4
186
4
178
4
179
4
191
4
198
4
215
4
231
4
236
4
244
4
2
5
253
4
10
5
14
5
32
5
30
5
44
5
51
5
37
5
66
5
69
5
80
5
86
5
101
5
122
5
152
5
162
5
172
5
162
5
158
5
159
5
154
5
162
5
188
5
187
5
187
5
188
5
195
5
210
5
210
5
218
5
219
5
206
5
198
5
185
5
166
5
154
5
147
5
101
5
66
5
30
5
253
4
234
4
210
4
184
4
154
4
129
4
114
4
86
4
54
4
23
4
27
4
3
4
235
3
247
3
243
3
219
3
194
3
189
3
184
3
166
3
156
3
156
3
178
3
182
3
170
3
163
3
146
3
130
3
138
3
155
3
164
3
178
3
179
3
179
3
170
3
171
3
187
3
191
3
190
3
178
3
187
3
196
3
194
3
198
3
191
3
191
3
198
3
207
3
211
3
219
3
215
3
230
3
240
3
242
3
244
3
227
3
201
3
208
3
211
3
227
3
236
3
226
3
227
3
235
3
235
3
222
3
220
3
222
3
238
3
223
3
235
3
216
3
194
3
195
3
199
3
193
3
223
3
219
3
228
3
211
3
203
3
210
3
211
3
219
3
224
3
234
3
224
3
223
3
206
3
198
3
202
3
206
3
208
3
200
3
207
3
207
3
186
3
206
3
203
3
200
3
186
3
178
3
182
3
187
3
188
3
196
3
186
3
184
3
194
3
201
3
191
3
196
3
183
3
168
3
172
3
178
3
176
3
183
3
190
3
185
3
210
3
222
3
224
3
178
3
170
3
180
3
192
3
186
3
176
3
171
3
211
3
191
3
212
3
211
3
222
3
178
3
194
3
224
3
205
3
186
3
182
3
174
3
192
3
191
3
194
3
186
3
166
3
158
3
158
3
163
3
158
3
163
3
167
3
178
3
194
3
199
3
196
3
211
3
218
3
218
3
224
3
225
3
242
3
10
4
250
3
219
3
203
3
156
3
192
3
208
3
212
3
222
3
227
3
218
3
220
3
218
3
216
3
217
3
219
3
224
3
226
3
224
3
218
3
217
3
235
3
232
3
250
3
235
3
234
3
228
3
234
3
246
3
3
4
38
4
58
4
101
4
168
4
46
5
192
5
99
6
250
6
43
7
203
6
80
6
77
5
234
3
98
2
32
1
105
0
44
0
102
0
217
0
76
1
154
1
230
1
52
2
173
2
41
3
132
3
195
3
16
4
51
4
72
4
118
4
117
4
92
4
106
4
130
4
115
4
118
4
119
4
144
4
155
4
150
4
141
4
138
4
138
4
144
4
146
4
151
4
151
4
166
4
170
4
165
4
182
4
175
4
166
4
183
4
194
4
195
4
187
4
185
4
182
4
182
4
191
4
204
4
219
4
215
4
221
4
230
4
237
4
250
4
254
4
250
4
250
4
251
4
2
5
4
5
10
5
18
5
31
5
50
5
58
5
67
5
71
5
68
5
83
5
104
5
130
5
144
5
147
5
151
5
156
5
170
5
171
5
192
5
218
5
220
5
233
5
210
5
208
5
233
5
255
5
254
5
246
5
26
6
9
6
16
6
251
5
15
6
255
5
218
5
203
5
205
5
203
5
194
5
149
5
110
5
114
5
77
5
51
5
27
5
231
4
211
4
154
4
115
4
99
4
83
4
58
4
22
4
253
3
6
4
243
3
251
3
220
3
199
3
181
3
166
3
159
3
147
3
135
3
146
3
144
3
140
3
147
3
168
3
166
3
178
3
170
3
166
3
171
3
178
3
179
3
182
3
194
3
193
3
198
3
208
3
194
3
203
3
221
3
226
3
235
3
241
3
244
3
226
3
219
3
223
3
223
3
213
3
192
3
219
3
240
3
252
3
14
4
17
4
7
4
254
3
222
3
230
3
243
3
253
3
255
3
250
3
254
3
238
3
230
3
252
3
246
3
2
4
239
3
241
3
235
3
238
3
246
3
242
3
227
3
231
3
210
3
219
3
208
3
214
3
206
3
208
3
198
3
194
3
184
3
199
3
213
3
196
3
198
3
169
3
176
3
158
3
157
3
185
3
194
3
205
3
197
3
183
3
186
3
196
3
194
3
189
3
192
3
216
3
200
3
180
3
184
3
179
3
177
3
192
3
184
3
179
3
184
3
179
3
186
3
194
3
184
3
180
3
186
3
184
3
176
3
173
3
171
3
187
3
194
3
191
3
182
3
158
3
149
3
168
3
174
3
172
3
182
3
192
3
186
3
158
3
176
3
177
3
179
3
200
3
207
3
196
3
207
3
198
3
194
3
208
3
225
3
221
3
218
3
226
3
231
3
242
3
250
3
11
4
23
4
14
4
19
4
15
4
37
4
46
4
46
4
53
4
25
4
22
4
22
4
12
4
24
4
32
4
46
4
50
4
33
4
37
4
43
4
40
4
45
4
43
4
48
4
46
4
58
4
63
4
86
4
119
4
154
4
192
4
10
5
146
5
46
6
184
6
15
7
205
6
70
6
120
5
114
4
48
3
216
1
215
0
69
0
21
0
84
0
179
0
0
1
62
1
139
1
218
1
92
2
214
2
51
3
139
3
202
3
226
3
239
3
250
3
8
4
26
4
47
4
62
4
68
4
82
4
106
4
120
4
120
4
117
4
110
4
128
4
136
4
141
4
142
4
162
4
162
4
173
4
182
4
185
4
195
4
187
4
188
4
194
4
184
4
190
4
200
4
200
4
198
4
208
4
224
4
218
4
226
4
242
4
3
5
31
5
42
5
45
5
24
5
22
5
58
5
91
5
85
5
63
5
51
5
57
5
67
5
70
5
69
5
80
5
102
5
106
5
114
5
114
5
120
5
137
5
147
5
153
5
166
5
184
5
190
5
169
5
152
5
170
5
183
5
203
5
208
5
203
5
202
5
180
5
173
5
195
5
206
5
191
5
174
5
139
5
108
5
115
5
100
5
78
5
59
5
35
5
14
5
3
5
235
4
232
4
203
4
180
4
144
4
114
4
86
4
70
4
54
4
43
4
7
4
240
3
226
3
190
3
152
3
130
3
95
3
90
3
83
3
70
3
74
3
91
3
102
3
103
3
79
3
60
3
27
3
36
3
66
3
70
3
60
3
53
3
42
3
24
3
40
3
58
3
55
3
46
3
40
3
40
3
46
3
49
3
54
3
60
3
67
3
66
3
58
3
48
3
44
3
43
3
46
3
52
3
58
3
74
3
78
3
76
3
78
3
82
3
71
3
70
3
56
3
52
3
46
3
38
3
48
3
50
3
60
3
60
3
54
3
51
3
47
3
46
3
45
3
48
3
50
3
44
3
36
3
37
3
34
3
28
3
24
3
63
3
76
3
82
3
25
3
39
3
79
3
56
3
28
3
3
3
69
3
153
3
159
3
126
3
140
3
147
3
158
3
117
3
74
3
115
3
101
3
112
3
85
3
100
3
87
3
135
3
114
3
134
3
125
3
119
3
118
3
96
3
71
3
72
3
82
3
70
3
95
3
107
3
94
3
96
3
88
3
83
3
90
3
90
3
78
3
86
3
94
3
80
3
74
3
75
3
74
3
64
3
79
3
76
3
82
3
74
3
70
3
86
3
75
3
46
3
38
3
37
3
44
3
58
3
54
3
50
3
54
3
42
3
34
3
34
3
32
3
44
3
59
3
78
3
94
3
72
3
80
3
86
3
90
3
90
3
81
3
96
3
108
3
108
3
118
3
124
3
130
3
146
3
144
3
141
3
153
3
136
3
122
3
126
3
119
3
102
3
70
3
57
3
26
3
26
3
50
3
48
3
54
3
58
3
50
3
56
3
58
3
48
3
56
3
50
3
42
3
31
3
35
3
35
3
34
3
46
3
76
3
87
3
114
3
177
3
67
4
235
4
132
5
232
5
205
5
104
5
227
4
235
3
207
2
120
1
130
0
0
0
0
0
0
0
32
0
105
0
207
0
32
1
129
1
248
1
124
2
213
2
60
3
152
3
188
3
201
3
210
3
234
3
251
3
23
4
46
4
66
4
79
4
69
4
82
4
101
4
133
4
143
4
138
4
139
4
160
4
178
4
187
4
183
4
192
4
206
4
225
4
208
4
199
4
210
4
216
4
243
4
243
4
0
5
18
5
34
5
39
5
25
5
18
5
23
5
32
5
22
5
25
5
74
5
60
5
50
5
40
5
42
5
85
5
102
5
71
5
76
5
102
5
107
5
128
5
151
5
143
5
147
5
154
5
146
5
151
5
168
5
166
5
157
5
170
5
195
5
216
5
235
5
241
5
237
5
2
6
21
6
8
6
10
6
6
6
17
6
38
6
35
6
43
6
51
6
55
6
50
6
50
6
56
6
41
6
19
6
247
5
215
5
211
5
194
5
171
5
162
5
107
5
93
5
102
5
58
5
252
4
182
4
168
4
170
4
170
4
136
4
103
4
71
4
45
4
38
4
32
4
26
4
27
4
22
4
7
4
7
4
247
3
226
3
218
3
227
3
218
3
206
3
216
3
228
3
225
3
226
3
2
4
232
3
226
3
218
3
223
3
246
3
2
4
11
4
7
4
254
3
250
3
247
3
251
3
10
4
11
4
250
3
248
3
8
4
14
4
24
4
35
4
21
4
14
4
14
4
24
4
35
4
35
4
25
4
19
4
32
4
34
4
52
4
67
4
61
4
55
4
43
4
46
4
59
4
54
4
54
4
52
4
51
4
50
4
55
4
55
4
42
4
55
4
58
4
49
4
47
4
51
4
47
4
39
4
54
4
59
4
50
4
54
4
51
4
44
4
51
4
40
4
40
4
33
4
50
4
54
4
50
4
59
4
31
4
38
4
54
4
64
4
75
4
70
4
46
4
55
4
41
4
44
4
48
4
51
4
50
4
50
4
58
4
65
4
70
4
72
4
51
4
46
4
56
4
62
4
64
4
67
4
56
4
58
4
55
4
64
4
70
4
50
4
44
4
48
4
46
4
46
4
71
4
67
4
52
4
75
4
75
4
81
4
78
4
79
4
76
4
80
4
67
4
52
4
59
4
70
4
48
4
58
4
68
4
58
4
62
4
67
4
68
4
67
4
66
4
78
4
83
4
81
4
86
4
74
4
59
4
87
4
90
4
84
4
80
4
86
4
105
4
122
4
128
4
108
4
122
4
126
4
119
4
122
4
122
4
87
4
96
4
110
4
114
4
118
4
138
4
129
4
106
4
98
4
99
4
92
4
86
4
106
4
84
4
110
4
112
4
93
4
102
4
105
4
102
4
106
4
130
4
152
4
170
4
225
4
107
5
42
6
211
6
97
7
126
7
96
7
237
6
242
5
187
4
46
3
224
1
243
0
156
0
215
0
58
1
148
1
222
1
51
2
152
2
16
3
130
3
213
3
46
4
115
4
159
4
163
4
154
4
163
4
186
4
191
4
190
4
199
4
207
4
208
4
214
4
211
4
221
4
235
4
234
4
225
4
227
4
214
4
220
4
235
4
231
4
223
4
243
4
253
4
10
5
255
4
249
4
0
5
2
5
249
4
2
5
14
5
10
5
20
5
19
5
15
5
12
5
30
5
47
5
51
5
50
5
51
5
59
5
70
5
75
5
72
5
83
5
91
5
104
5
115
5
133
5
144
5
162
5
170
5
170
5
183
5
191
5
187
5
195
5
198
5
212
5
234
5
250
5
10
6
16
6
17
6
24
6
34
6
29
6
46
6
62
6
75
6
67
6
66
6
54
6
69
6
90
6
86
6
74
6
87
6
80
6
59
6
82
6
37
6
243
5
230
5
229
5
208
5
163
5
134
5
82
5
48
5
11
5
233
4
206
4
154
4
119
4
114
4
113
4
86
4
62
4
43
4
8
4
23
4
27
4
14
4
14
4
8
4
248
3
227
3
218
3
196
3
195
3
203
3
216
3
217
3
218
3
210
3
210
3
213
3
216
3
215
3
211
3
199
3
195
3
215
3
222
3
232
3
240
3
229
3
232
3
239
3
242
3
254
3
254
3
2
4
2
4
252
3
4
4
10
4
15
4
22
4
27
4
20
4
13
4
7
4
1
4
4
4
23
4
15
4
0
4
2
4
4
4
13
4
18
4
23
4
8
4
2
4
247
3
2
4
3
4
238
3
228
3
230
3
232
3
222
3
215
3
226
3
230
3
235
3
243
3
236
3
234
3
219
3
196
3
207
3
207
3
206
3
208
3
218
3
223
3
234
3
214
3
203
3
206
3
198
3
183
3
186
3
199
3
209
3
210
3
200
3
203
3
215
3
215
3
212
3
211
3
206
3
192
3
203
3
198
3
219
3
219
3
212
3
214
3
223
3
225
3
206
3
198
3
177
3
203
3
195
3
203
3
208
3
198
3
197
3
207
3
216
3
212
3
210
3
214
3
208
3
198
3
198
3
216
3
216
3
238
3
230
3
212
3
223
3
227
3
220
3
223
3
227
3
223
3
231
3
218
3
213
3
211
3
208
3
207
3
223
3
222
3
215
3
214
3
205
3
208
3
219
3
219
3
226
3
243
3
228
3
218
3
232
3
228
3
210
3
223
3
231
3
248
3
249
3
239
3
230
3
226
3
234
3
235
3
235
3
229
3
216
3
203
3
187
3
176
3
200
3
214
3
216
3
206
3
209
3
213
3
208
3
216
3
242
3
238
3
237
3
227
3
226
3
222
3
208
3
250
3
14
4
14
4
43
4
83
4
110
4
190
4
94
5
3
6
179
6
23
7
1
7
202
6
8
6
7
5
168
3
46
2
26
1
95
0
69
0
151
0
235
0
66
1
151
1
6
2
114
2
238
2
83
3
143
3
223
3
34
4
48
4
54
4
78
4
86
4
60
4
35
4
24
4
41
4
42
4
37
4
67
4
91
4
81
4
87
4
111
4
102
4
115
4
110
4
102
4
108
4
142
4
148
4
150
4
155
4
180
4
208
4
186
4
184
4
181
4
206
4
221
4
215
4
210
4
216
4
223
4
224
4
221
4
212
4
239
4
231
4
228
4
219
4
245
4
228
4
227
4
235
4
244
4
251
4
247
4
248
4
254
4
14
5
17
5
34
5
41
5
40
5
54
5
67
5
64
5
82
5
85
5
103
5
115
5
122
5
135
5
147
5
163
5
176
5
178
5
188
5
197
5
203
5
205
5
177
5
175
5
185
5
202
5
224
5
215
5
205
5
190
5
175
5
150
5
158
5
130
5
103
5
75
5
37
5
250
4
222
4
194
4
186
4
152
4
118
4
64
4
34
4
6
4
244
3
3
4
216
3
185
3
171
3
165
3
144
3
135
3
129
3
134
3
138
3
128
3
119
3
119
3
111
3
86
3
99
3
102
3
106
3
119
3
118
3
104
3
98
3
104
3
114
3
126
3
138
3
147
3
144
3
132
3
132
3
143
3
147
3
145
3
162
3
160
3
158
3
170
3
154
3
148
3
174
3
182
3
188
3
183
3
167
3
148
3
147
3
160
3
158
3
178
3
175
3
162
3
155
3
155
3
159
3
175
3
157
3
164
3
162
3
155
3
172
3
155
3
163
3
149
3
158
3
169
3
169
3
171
3
154
3
138
3
130
3
129
3
136
3
145
3
138
3
134
3
152
3
163
3
152
3
151
3
146
3
154
3
166
3
161
3
158
3
153
3
148
3
151
3
150
3
133
3
134
3
135
3
144
3
155
3
163
3
152
3
156
3
151
3
145
3
141
3
139
3
134
3
132
3
139
3
150
3
148
3
155
3
152
3
156
3
162
3
163
3
171
3
170
3
166
3
144
3
147
3
165
3
168
3
176
3
187
3
178
3
163
3
162
3
155
3
155
3
164
3
162
3
174
3
165
3
177
3
186
3
179
3
184
3
187
3
186
3
178
3
183
3
185
3
178
3
186
3
190
3
162
3
194
3
184
3
199
3
198
3
198
3
186
3
166
3
151
3
154
3
171
3
169
3
168
3
171
3
165
3
166
3
171
3
171
3
166
3
166
3
164
3
166
3
190
3
195
3
188
3
192
3
186
3
184
3
199
3
212
3
198
3
199
3
168
3
163
3
179
3
170
3
160
3
171
3
168
3
169
3
170
3
162
3
160
3
166
3
175
3
164
3
154
3
162
3
163
3
184
3
175
3
176
3
179
3
165
3
168
3
183
3
196
3
221
3
251
3
7
4
71
4
230
4
147
5
59
6
163
6
175
6
115
6
235
5
250
4
185
3
47
2
243
0
34
0
3
0
43
0
144
0
221
0
39
1
143
1
255
1
120
2
236
2
74
3
146
3
222
3
3
4
14
4
9
4
6
4
10
4
16
4
34
4
27
4
13
4
29
4
38
4
36
4
54
4
51
4
62
4
70
4
59
4
64
4
71
4
59
4
71
4
94
4
98
4
81
4
86
4
90
4
96
4
102
4
107
4
97
4
94
4
103
4
106
4
110
4
118
4
130
4
134
4
129
4
132
4
138
4
134
4
130
4
158
4
181
4
188
4
186
4
181
4
184
4
195
4
195
4
200
4
219
4
238
4
251
4
10
5
5
5
18
5
19
5
37
5
35
5
38
5
43
5
63
5
71
5
45
5
63
5
80
5
88
5
98
5
124
5
133
5
143
5
140
5
134
5
129
5
151
5
176
5
160
5
150
5
151
5
130
5
121
5
125
5
107
5
88
5
65
5
39
5
4
5
236
4
206
4
166
4
140
4
109
4
65
4
24
4
11
4
246
3
223
3
199
3
184
3
169
3
158
3
145
3
124
3
119
3
116
3
104
3
109
3
97
3
94
3
96
3
100
3
89
3
79
3
73
3
88
3
101
3
108
3
108
3
115
3
104
3
88
3
86
3
72
3
85
3
98
3
101
3
98
3
103
3
100
3
102
3
107
3
98
3
104
3
114
3
108
3
108
3
107
3
96
3
106
3
118
3
121
3
120
3
119
3
120
3
128
3
126
3
118
3
128
3
133
3
140
3
158
3
149
3
141
3
142
3
137
3
124
3
124
3
135
3
136
3
136
3
141
3
134
3
137
3
138
3
132
3
101
3
89
3
84
3
96
3
103
3
101
3
113
3
125
3
118
3
105
3
99
3
88
3
92
3
117
3
132
3
128
3
119
3
109
3
96
3
82
3
84
3
104
3
123
3
126
3
132
3
107
3
95
3
100
3
101
3
100
3
101
3
94
3
94
3
92
3
102
3
100
3
108
3
119
3
117
3
116
3
107
3
112
3
118
3
118
3
116
3
121
3
133
3
132
3
140
3
150
3
120
3
120
3
126
3
117
3
125
3
134
3
128
3
133
3
131
3
124
3
116
3
111
3
117
3
110
3
117
3
113
3
122
3
121
3
112
3
112
3
123
3
108
3
111
3
121
3
129
3
128
3
117
3
113
3
118
3
117
3
109
3
104
3
115
3
124
3
136
3
131
3
108
3
108
3
119
3
120
3
124
3
135
3
149
3
159
3
167
3
176
3
192
3
193
3
196
3
197
3
199
3
196
3
192
3
189
3
172
3
175
3
179
3
174
3
172
3
166
3
157
3
160
3
178
3
177
3
181
3
203
3
204
3
216
3
215
3
209
3
228
3
226
3
212
3
207
3
214
3
204
3
192
3
197
3
190
3
204
3
227
3
4
4
48
4
155
4
61
5
237
5
145
6
222
6
206
6
143
6
181
5
140
4
245
2
144
1
161
0
30
0
36
0
132
0
213
0
37
1
114
1
225
1
92
2
204
2
51
3
118
3
208
3
2
4
28
4
4
4
246
3
4
4
8
4
22
4
28
4
30
4
22
4
16
4
24
4
30
4
36
4
45
4
58
4
46
4
52
4
63
4
52
4
56
4
66
4
54
4
68
4
87
4
84
4
80
4
83
4
88
4
88
4
102
4
100
4
92
4
85
4
92
4
100
4
110
4
116
4
126
4
143
4
140
4
144
4
154
4
133
4
132
4
143
4
148
4
176
4
187
4
193
4
188
4
201
4
204
4
207
4
219
4
240
4
8
5
35
5
30
5
38
5
27
5
28
5
52
5
55
5
60
5
76
5
93
5
101
5
102
5
118
5
128
5
142
5
155
5
145
5
140
5
127
5
128
5
134
5
139
5
125
5
126
5
115
5
116
5
100
5
75
5
36
5
8
5
251
4
222
4
192
4
160
4
121
4
102
4
71
4
36
4
6
4
242
3
209
3
192
3
165
3
136
3
132
3
119
3
93
3
93
3
96
3
73
3
70
3
75
3
60
3
79
3
86
3
77
3
60
3
64
3
56
3
64
3
77
3
84
3
69
3
75
3
77
3
80
3
90
3
81
3
80
3
87
3
92
3
97
3
109
3
104
3
92
3
99
3
104
3
112
3
119
3
118
3
124
3
130
3
119
3
105
3
101
3
89
3
76
3
71
3
77
3
84
3
96
3
108
3
117
3
133
3
140
3
152
3
167
3
164
3
150
3
155
3
159
3
160
3
175
3
169
3
172
3
171
3
144
3
130
3
131
3
125
3
136
3
146
3
132
3
128
3
130
3
134
3
120
3
111
3
108
3
100
3
103
3
100
3
95
3
103
3
95
3
97
3
115
3
104
3
100
3
103
3
100
3
93
3
96
3
92
3
100
3
103
3
109
3
109
3
113
3
116
3
124
3
107
3
100
3
94
3
113
3
111
3
120
3
119
3
113
3
116
3
108
3
119
3
117
3
110
3
104
3
104
3
110
3
96
3
88
3
111
3
124
3
124
3
111
3
92
3
84
3
94
3
100
3
104
3
109
3
104
3
104
3
110
3
120
3
120
3
125
3
112
3
114
3
123
3
112
3
132
3
138
3
129
3
116
3
115
3
122
3
124
3
118
3
124
3
132
3
154
3
156
3
152
3
150
3
140
3
146
3
151
3
148
3
160
3
170
3
156
3
149
3
160
3
144
3
164
3
166
3
152
3
158
3
150
3
148
3
152
3
151
3
142
3
148
3
135
3
136
3
148
3
150
3
156
3
150
3
179
3
168
3
154
3
171
3
188
3
196
3
183
3
180
3
164
3
166
3
166
3
164
3
173
3
172
3
174
3
171
3
164
3
160
3
145
3
132
3
156
3
154
3
140
3
148
3
151
3
144
3
148
3
167
3
152
3
152
3
158
3
149
3
153
3
163
3
156
3
168
3
198
3
240
3
20
4
99
4
0
5
156
5
55
6
144
6
116
6
55
6
124
5
96
4
243
2
146
1
165
0
23
0
25
0
121
0
239
0
52
1
120
1
202
1
33
2
141
2
14
3
84
3
142
3
195
3
220
3
232
3
242
3
241
3
4
4
10
4
4
4
244
3
238
3
8
4
24
4
26
4
20
4
28
4
18
4
8
4
4
4
18
4
29
4
28
4
39
4
48
4
36
4
35
4
52
4
60
4
71
4
64
4
76
4
89
4
78
4
80
4
87
4
80
4
84
4
102
4
108
4
132
4
131
4
110
4
116
4
131
4
132
4
134
4
146
4
152
4
176
4
205
4
204
4
212
4
194
4
180
4
184
4
207
4
220
4
2
5
23
5
36
5
36
5
50
5
54
5
72
5
97
5
100
5
110
5
117
5
124
5
124
5
127
5
128
5
140
5
149
5
133
5
104
5
107
5
109
5
116
5
118
5
129
5
111
5
96
5
81
5
80
5
78
5
57
5
36
5
3
5
236
4
214
4
181
4
137
4
116
4
83
4
52
4
20
4
7
4
238
3
212
3
197
3
172
3
166
3
139
3
118
3
116
3
115
3
109
3
100
3
101
3
110
3
109
3
106
3
77
3
53
3
49
3
36
3
36
3
39
3
52
3
72
3
83
3
65
3
60
3
67
3
69
3
78
3
83
3
80
3
79
3
83
3
88
3
108
3
110
3
92
3
94
3
107
3
118
3
140
3
139
3
150
3
142
3
147
3
121
3
104
3
102
3
92
3
77
3
74
3
69
3
100
3
126
3
138
3
152
3
153
3
133
3
132
3
117
3
97
3
76
3
79
3
88
3
108
3
115
3
112
3
96
3
122
3
112
3
109
3
103
3
108
3
101
3
103
3
88
3
108
3
114
3
104
3
102
3
96
3
68
3
64
3
58
3
52
3
76
3
90
3
92
3
92
3
97
3
96
3
104
3
114
3
109
3
118
3
130
3
132
3
137
3
143
3
125
3
101
3
106
3
89
3
100
3
119
3
124
3
117
3
107
3
104
3
101
3
109
3
108
3
117
3
141
3
157
3
164
3
161
3
164
3
156
3
151
3
144
3
136
3
123
3
110
3
108
3
111
3
118
3
116
3
113
3
97
3
93
3
86
3
100
3
97
3
87
3
108
3
93
3
79
3
89
3
100
3
107
3
122
3
128
3
134
3
120
3
116
3
110
3
88
3
84
3
98
3
100
3
108
3
109
3
116
3
120
3
115
3
97
3
88
3
82
3
109
3
132
3
131
3
121
3
120
3
130
3
140
3
152
3
175
3
186
3
200
3
214
3
180
3
169
3
169
3
165
3
172
3
170
3
165
3
160
3
150
3
132
3
149
3
157
3
141
3
148
3
156
3
148
3
136
3
139
3
141
3
133
3
135
3
124
3
133
3
147
3
150
3
159
3
158
3
150
3
156
3
177
3
206
3
228
3
30
4
132
4
21
5
173
5
56
6
132
6
125
6
68
6
124
5
98
4
240
2
176
1
202
0
62
0
81
0
181
0
14
1
69
1
149
1
212
1
47
2
160
2
0
3
68
3
133
3
181
3
194
3
210
3
212
3
208
3
214
3
220
3
212
3
206
3
216
3
232
3
239
3
249
3
240
3
235
3
236
3
236
3
239
3
238
3
245
3
15
4
8
4
12
4
2
4
12
4
20
4
23
4
20
4
30
4
37
4
36
4
52
4
55
4
41
4
29
4
32
4
36
4
48
4
64
4
68
4
68
4
78
4
77
4
76
4
91
4
89
4
78
4
78
4
88
4
110
4
135
4
136
4
148
4
173
4
180
4
184
4
196
4
193
4
207
4
231
4
237
4
237
4
2
5
244
4
246
4
13
5
8
5
12
5
39
5
44
5
46
5
58
5
52
5
60
5
58
5
37
5
37
5
38
5
28
5
36
5
47
5
30
5
8
5
255
4
232
4
212
4
199
4
157
4
120
4
107
4
84
4
48
4
26
4
252
3
201
3
182
3
165
3
147
3
157
3
119
3
105
3
104
3
121
3
94
3
52
3
50
3
41
3
42
3
40
3
20
3
7
3
6
3
17
3
26
3
22
3
20
3
3
3
255
2
247
2
4
3
8
3
13
3
10
3
11
3
10
3
8
3
255
2
11
3
16
3
22
3
16
3
22
3
30
3
33
3
33
3
34
3
34
3
42
3
40
3
37
3
40
3
66
3
86
3
87
3
70
3
63
3
48
3
47
3
53
3
57
3
55
3
43
3
44
3
51
3
56
3
50
3
58
3
88
3
92
3
83
3
60
3
64
3
64
3
57
3
58
3
54
3
61
3
70
3
74
3
72
3
63
3
59
3
46
3
35
3
31
3
38
3
59
3
72
3
58
3
54
3
54
3
57
3
58
3
74
3
58
3
52
3
47
3
54
3
60
3
50
3
50
3
39
3
30
3
42
3
48
3
64
3
49
3
30
3
38
3
55
3
50
3
54
3
43
3
47
3
46
3
42
3
44
3
57
3
58
3
64
3
58
3
50
3
65
3
62
3
58
3
48
3
56
3
52
3
45
3
62
3
77
3
82
3
76
3
70
3
62
3
51
3
66
3
71
3
80
3
70
3
72
3
82
3
78
3
68
3
70
3
70
3
60
3
74
3
67
3
68
3
73
3
62
3
73
3
83
3
77
3
66
3
70
3
88
3
86
3
99
3
90
3
77
3
75
3
77
3
75
3
71
3
54
3
46
3
38
3
38
3
65
3
70
3
72
3
62
3
58
3
75
3
93
3
109
3
98
3
98
3
111
3
122
3
138
3
147
3
139
3
144
3
159
3
154
3
146
3
131
3
136
3
150
3
161
3
162
3
149
3
131
3
117
3
127
3
143
3
135
3
135
3
166
3
162
3
170
3
166
3
152
3
150
3
142
3
134
3
146
3
143
3
131
3
124
3
131
3
139
3
164
3
191
3
219
3
234
3
59
4
211
4
106
5
3
6
93
6
83
6
22
6
139
5
159
4
104
3
29
2
36
1
144
0
137
0
202
0
34
1
96
1
154
1
234
1
37
2
146
2
251
2
59
3
132
3
190
3
221
3
212
3
231
3
243
3
240
3
251
3
6
4
14
4
19
4
18
4
10
4
35
4
16
4
16
4
27
4
24
4
33
4
35
4
39
4
49
4
50
4
40
4
34
4
18
4
6
4
36
4
58
4
63
4
62
4
51
4
34
4
40
4
66
4
83
4
80
4
74
4
88
4
93
4
106
4
105
4
103
4
120
4
108
4
95
4
115
4
134
4
141
4
155
4
166
4
162
4
166
4
162
4
177
4
179
4
196
4
213
4
199
4
222
4
238
4
3
5
15
5
27
5
39
5
50
5
30
5
35
5
40
5
53
5
59
5
63
5
67
5
78
5
72
5
68
5
64
5
66
5
64
5
72
5
75
5
62
5
51
5
36
5
24
5
8
5
244
4
221
4
191
4
164
4
125
4
110
4
79
4
71
4
42
4
11
4
252
3
246
3
211
3
180
3
166
3
162
3
151
3
130
3
101
3
94
3
87
3
84
3
92
3
88
3
87
3
77
3
81
3
70
3
74
3
74
3
59
3
53
3
67
3
67
3
69
3
75
3
82
3
82
3
70
3
70
3
61
3
62
3
72
3
88
3
103
3
114
3
110
3
112
3
98
3
100
3
119
3
114
3
132
3
119
3
118
3
130
3
134
3
146
3
153
3
150
3
139
3
127
3
138
3
130
3
118
3
120
3
104
3
99
3
118
3
131
3
126
3
129
3
110
3
91
3
91
3
104
3
96
3
103
3
104
3
112
3
114
3
110
3
92
3
102
3
99
3
100
3
107
3
108
3
102
3
98
3
96
3
96
3
94
3
90
3
95
3
98
3
102
3
104
3
107
3
98
3
104
3
103
3
104
3
106
3
106
3
102
3
84
3
82
3
94
3
100
3
112
3
111
3
112
3
112
3
104
3
95
3
90
3
94
3
92
3
99
3
97
3
77
3
74
3
82
3
97
3
102
3
94
3
103
3
104
3
105
3
97
3
88
3
80
3
78
3
94
3
97
3
93
3
91
3
91
3
88
3
82
3
90
3
90
3
90
3
94
3
86
3
86
3
81
3
68
3
66
3
57
3
78
3
86
3
98
3
106
3
99
3
78
3
88
3
112
3
138
3
148
3
150
3
158
3
159
3
166
3
154
3
146
3
143
3
146
3
150
3
163
3
144
3
137
3
134
3
125
3
125
3
146
3
149
3
138
3
134
3
139
3
132
3
135
3
130
3
150
3
163
3
154
3
138
3
146
3
144
3
131
3
134
3
143
3
164
3
206
3
229
3
24
4
139
4
52
5
248
5
110
6
121
6
104
6
18
6
63
5
244
3
183
2
193
1
6
1
209
0
5
1
78
1
107
1
171
1
252
1
91
2
178
2
223
2
23
3
90
3
138
3
163
3
176
3
188
3
194
3
196
3
198
3
211
3
216
3
206
3
211
3
219
3
219
3
227
3
230
3
230
3
224
3
224
3
237
3
230
3
241
3
1
4
16
4
19
4
17
4
8
4
253
3
247
3
242
3
238
3
9
4
19
4
24
4
26
4
48
4
56
4
48
4
64
4
73
4
71
4
75
4
85
4
86
4
114
4
122
4
125
4
127
4
126
4
128
4
134
4
163
4
152
4
168
4
190
4
194
4
211
4
210
4
195
4
206
4
217
4
232
4
6
5
32
5
49
5
43
5
43
5
69
5
80
5
67
5
84
5
99
5
102
5
99
5
107
5
102
5
93
5
80
5
59
5
80
5
98
5
87
5
69
5
54
5
37
5
5
5
247
4
221
4
201
4
165
4
138
4
104
4
75
4
30
4
250
3
224
3
208
3
193
3
187
3
157
3
124
3
106
3
86
3
64
3
51
3
42
3
50
3
48
3
38
3
43
3
59
3
63
3
31
3
14
3
25
3
28
3
30
3
22
3
18
3
32
3
35
3
34
3
33
3
67
3
60
3
34
3
28
3
23
3
27
3
46
3
51
3
55
3
62
3
60
3
66
3
63
3
66
3
66
3
81
3
74
3
79
3
86
3
91
3
86
3
83
3
87
3
96
3
100
3
91
3
87
3
96
3
94
3
102
3
93
3
103
3
111
3
107
3
109
3
119
3
122
3
128
3
118
3
111
3
104
3
95
3
102
3
106
3
118
3
112
3
104
3
99
3
96
3
98
3
103
3
97
3
84
3
96
3
99
3
84
3
90
3
96
3
86
3
79
3
77
3
74
3
88
3
96
3
98
3
110
3
104
3
80
3
83
3
88
3
99
3
101
3
97
3
104
3
108
3
114
3
116
3
98
3
96
3
106
3
123
3
121
3
114
3
136
3
110
3
109
3
123
3
131
3
128
3
114
3
117
3
124
3
122
3
115
3
108
3
130
3
131
3
120
3
138
3
133
3
130
3
130
3
118
3
124
3
134
3
134
3
136
3
135
3
158
3
145
3
139
3
138
3
118
3
130
3
113
3
133
3
151
3
158
3
164
3
166
3
147
3
138
3
155
3
150
3
151
3
135
3
130
3
141
3
155
3
163
3
146
3
155
3
152
3
144
3
143
3
142
3
136
3
144
3
146
3
155
3
154
3
152
3
145
3
150
3
155
3
154
3
157
3
134
3
128
3
139
3
136
3
149
3
155
3
144
3
142
3
129
3
96
3
124
3
139
3
148
3
140
3
143
3
131
3
130
3
138
3
154
3
168
3
166
3
162
3
154
3
171
3
189
3
201
3
215
3
198
3
192
3
183
3
182
3
184
3
194
3
195
3
178
3
177
3
153
3
136
3
150
3
173
3
173
3
187
3
187
3
176
3
186
3
168
3
178
3
171
3
166
3
164
3
168
3
171
3
161
3
174
3
188
3
199
3
194
3
179
3
193
3
219
3
8
4
50
4
151
4
72
5
246
5
115
6
162
6
179
6
139
6
196
5
128
4
10
3
1
2
55
1
230
0
4
1
88
1
139
1
181
1
2
2
101
2
191
2
32
3
79
3
128
3
182
3
234
3
244
3
246
3
16
4
14
4
11
4
14
4
23
4
30
4
30
4
33
4
42
4
43
4
28
4
46
4
54
4
66
4
75
4
82
4
70
4
50
4
57
4
63
4
56
4
64
4
74
4
80
4
83
4
91
4
87
4
83
4
91
4
102
4
107
4
112
4
97
4
112
4
116
4
115
4
131
4
142
4
122
4
143
4
158
4
172
4
174
4
179
4
170
4
187
4
186
4
214
4
223
4
211
4
226
4
247
4
3
5
251
4
7
5
32
5
26
5
18
5
34
5
50
5
66
5
87
5
108
5
130
5
116
5
131
5
118
5
143
5
142
5
150
5
143
5
139
5
158
5
155
5
146
5
158
5
160
5
163
5
154
5
142
5
109
5
103
5
91
5
62
5
40
5
2
5
215
4
190
4
154
4
126
4
99
4
72
4
49
4
30
4
12
4
241
3
217
3
187
3
156
3
155
3
137
3
142
3
131
3
130
3
130
3
127
3
113
3
120
3
115
3
110
3
114
3
114
3
110
3
117
3
117
3
119
3
118
3
130
3
127
3
111
3
99
3
101
3
108
3
118
3
120
3
119
3
124
3
147
3
116
3
133
3
139
3
129
3
118
3
140
3
144
3
147
3
153
3
139
3
160
3
177
3
161
3
147
3
145
3
153
3
150
3
141
3
151
3
137
3
140
3
140
3
129
3
106
3
121
3
136
3
150
3
157
3
152
3
131
3
140
3
152
3
155
3
151
3
148
3
162
3
153
3
110
3
104
3
117
3
148
3
152
3
147
3
138
3
145
3
140
3
134
3
130
3
115
3
118
3
126
3
125
3
136
3
127
3
129
3
136
3
129
3
124
3
130
3
120
3
131
3
136
3
124
3
134
3
136
3
138
3
142
3
146
3
136
3
134
3
122
3
123
3
139
3
122
3
120
3
146
3
148
3
134
3
127
3
132
3
140
3
145
3
144
3
142
3
143
3
142
3
146
3
153
3
152
3
148
3
140
3
138
3
170
3
177
3
168
3
142
3
125
3
124
3
124
3
126
3
136
3
152
3
153
3
152
3
147
3
132
3
133
3
136
3
124
3
125
3
130
3
135
3
138
3
129
3
121
3
116
3
111
3
84
3
92
3
109
3
113
3
100
3
108
3
117
3
116
3
134
3
145
3
160
3
168
3
159
3
170
3
189
3
200
3
197
3
190
3
189
3
180
3
168
3
183
3
198
3
189
3
174
3
160
3
166
3
170
3
174
3
175
3
173
3
172
3
175
3
181
3
184
3
178
3
176
3
168
3
186
3
188
3
174
3
158
3
166
3
180
3
175
3
206
3
242
3
16
4
22
4
118
4
37
5
202
5
100
6
170
6
186
6
140
6
184
5
130
4
246
2
192
1
221
0
132
0
160
0
241
0
53
1
111
1
201
1
72
2
158
2
254
2
69
3
132
3
200
3
226
3
233
3
231
3
228
3
250
3
2
4
18
4
28
4
30
4
22
4
29
4
28
4
29
4
52
4
62
4
68
4
78
4
78
4
58
4
68
4
64
4
62
4
72
4
78
4
70
4
74
4
77
4
84
4
62
4
68
4
76
4
77
4
72
4
90
4
94
4
98
4
92
4
97
4
127
4
146
4
148
4
140
4
138
4
136
4
149
4
166
4
175
4
176
4
162
4
184
4
204
4
212
4
205
4
219
4
228
4
236
4
244
4
2
5
18
5
42
5
50
5
60
5
75
5
82
5
82
5
106
5
98
5
101
5
110
5
126
5
143
5
153
5
134
5
132
5
127
5
124
5
127
5
142
5
148
5
138
5
127
5
132
5
124
5
97
5
84
5
56
5
16
5
236
4
202
4
183
4
156
4
116
4
84
4
42
4
24
4
17
4
238
3
194
3
187
3
162
3
122
3
109
3
112
3
95
3
92
3
78
3
76
3
69
3
90
3
72
3
85
3
84
3
76
3
82
3
85
3
82
3
74
3
72
3
79
3
72
3
76
3
79
3
89
3
86
3
82
3
87
3
101
3
108
3
89
3
102
3
102
3
101
3
92
3
88
3
91
3
112
3
120
3
108
3
94
3
94
3
87
3
82
3
74
3
73
3
76
3
88
3
87
3
86
3
94
3
71
3
64
3
67
3
77
3
76
3
84
3
103
3
78
3
84
3
92
3
100
3
78
3
75
3
90
3
88
3
78
3
88
3
86
3
96
3
94
3
105
3
96
3
98
3
110
3
103
3
86
3
97
3
98
3
90
3
102
3
100
3
108
3
92
3
83
3
88
3
94
3
92
3
92
3
100
3
113
3
104
3
116
3
116
3
89
3
93
3
97
3
86
3
79
3
84
3
92
3
102
3
96
3
100
3
110
3
117
3
116
3
107
3
119
3
116
3
134
3
132
3
120
3
128
3
121
3
116
3
122
3
129
3
120
3
110
3
99
3
114
3
120
3
119
3
98
3
130
3
130
3
120
3
132
3
111
3
122
3
131
3
137
3
125
3
132
3
135
3
124
3
124
3
135
3
164
3
154
3
148
3
140
3
140
3
139
3
120
3
120
3
119
3
132
3
159
3
178
3
170
3
156
3
161
3
170
3
178
3
170
3
174
3
184
3
165
3
158
3
157
3
157
3
148
3
146
3
142
3
146
3
173
3
181
3
152
3
140
3
147
3
160
3
154
3
149
3
152
3
150
3
159
3
170
3
169
3
181
3
196
3
205
3
192
3
180
3
178
3
178
3
170
3
136
3
108
3
102
3
102
3
94
3
100
3
101
3
95
3
106
3
111
3
112
3
116
3
88
3
109
3
112
3
118
3
131
3
134
3
138
3
132
3
134
3
140
3
141
3
132
3
133
3
146
3
146
3
152
3
157
3
198
3
232
3
253
3
52
4
174
4
70
5
8
6
114
6
133
6
106
6
225
5
207
4
46
3
196
1
183
0
40
0
52
0
173
0
14
1
90
1
178
1
14
2
118
2
220
2
30
3
99
3
145
3
165
3
186
3
197
3
186
3
181
3
188
3
204
3
210
3
218
3
230
3
239
3
244
3
232
3
229
3
223
3
244
3
246
3
237
3
242
3
242
3
252
3
242
3
242
3
232
3
228
3
236
3
244
3
244
3
8
4
12
4
28
4
38
4
45
4
56
4
66
4
78
4
86
4
90
4
77
4
86
4
104
4
118
4
124
4
100
4
106
4
142
4
140
4
148
4
148
4
152
4
158
4
170
4
172
4
178
4
190
4
200
4
199
4
196
4
210
4
224
4
236
4
246
4
251
4
20
5
35
5
44
5
56
5
64
5
61
5
62
5
60
5
64
5
73
5
95
5
105
5
108
5
105
5
93
5
88
5
70
5
76
5
86
5
82
5
78
5
70
5
72
5
46
5
8
5
220
4
178
4
144
4
108
4
82
4
28
4
12
4
244
3
206
3
187
3
157
3
130
3
116
3
93
3
74
3
40
3
31
3
50
3
56
3
42
3
20
3
252
2
249
2
24
3
24
3
18
3
12
3
30
3
21
3
34
3
40
3
41
3
36
3
46
3
55
3
46
3
50
3
65
3
64
3
40
3
21
3
2
3
15
3
41
3
40
3
62
3
64
3
50
3
42
3
43
3
46
3
44
3
44
3
60
3
42
3
39
3
58
3
62
3
56
3
56
3
63
3
77
3
78
3
79
3
79
3
74
3
82
3
55
3
46
3
50
3
60
3
66
3
68
3
73
3
80
3
82
3
56
3
40
3
40
3
56
3
70
3
68
3
48
3
48
3
44
3
57
3
56
3
58
3
60
3
66
3
74
3
67
3
60
3
64
3
65
3
58
3
56
3
61
3
73
3
88
3
90
3
84
3
82
3
82
3
70
3
74
3
91
3
88
3
82
3
76
3
84
3
89
3
78
3
56
3
68
3
83
3
85
3
70
3
69
3
66
3
74
3
89
3
84
3
82
3
86
3
82
3
70
3
56
3
70
3
98
3
99
3
94
3
86
3
64
3
54
3
76
3
69
3
76
3
78
3
92
3
82
3
84
3
89
3
90
3
97
3
106
3
82
3
72
3
65
3
76
3
84
3
99
3
104
3
106
3
93
3
86
3
83
3
81
3
68
3
64
3
64
3
42
3
56
3
57
3
72
3
84
3
90
3
86
3
60
3
59
3
70
3
88
3
73
3
82
3
76
3
73
3
102
3
116
3
140
3
138
3
142
3
117
3
110
3
124
3
129
3
124
3
124
3
133
3
122
3
118
3
107
3
126
3
145
3
133
3
124
3
122
3
113
3
110
3
110
3
100
3
104
3
116
3
129
3
134
3
130
3
122
3
130
3
126
3
119
3
128
3
136
3
141
3
152
3
170
3
189
3
212
3
38
4
202
4
108
5
11
6
108
6
114
6
104
6
188
5
156
4
227
2
99
1
78
0
0
0
0
0
32
0
148
0
241
0
90
1
206
1
61
2
185
2
20
3
84
3
122
3
162
3
182
3
188
3
184
3
170
3
188
3
203
3
205
3
202
3
239
3
9
4
2
4
246
3
1
4
236
3
236
3
227
3
240
3
8
4
16
4
13
4
14
4
10
4
4
4
24
4
33
4
50
4
64
4
57
4
44
4
62
4
76
4
92
4
84
4
89
4
112
4
113
4
96
4
100
4
86
4
103
4
114
4
140
4
142
4
136
4
129
4
144
4
154
4
152
4
178
4
182
4
184
4
199
4
202
4
197
4
204
4
232
4
10
5
11
5
26
5
24
5
22
5
30
5
34
5
60
5
86
5
107
5
89
5
86
5
96
5
109
5
132
5
134
5
109
5
78
5
74
5
87
5
66
5
79
5
97
5
112
5
93
5
87
5
60
5
33
5
17
5
250
4
226
4
189
4
180
4
152
4
111
4
78
4
36
4
1
4
218
3
198
3
189
3
150
3
120
3
97
3
76
3
56
3
35
3
12
3
8
3
249
2
250
2
6
3
9
3
16
3
13
3
3
3
14
3
24
3
25
3
20
3
20
3
31
3
46
3
40
3
37
3
46
3
67
3
67
3
56
3
54
3
42
3
44
3
58
3
68
3
72
3
96
3
109
3
94
3
114
3
133
3
126
3
116
3
122
3
134
3
156
3
151
3
152
3
140
3
113
3
122
3
137
3
126
3
114
3
109
3
105
3
110
3
115
3
140
3
152
3
140
3
150
3
160
3
141
3
159
3
140
3
133
3
165
3
156
3
136
3
113
3
129
3
133
3
119
3
127
3
130
3
103
3
108
3
99
3
104
3
111
3
118
3
120
3
115
3
92
3
102
3
100
3
130
3
113
3
99
3
87
3
80
3
90
3
77
3
62
3
70
3
45
3
20
3
14
3
45
3
60
3
67
3
54
3
60
3
67
3
77
3
95
3
110
3
93
3
98
3
95
3
82
3
91
3
94
3
74
3
87
3
99
3
103
3
100
3
98
3
82
3
77
3
91
3
82
3
91
3
79
3
86
3
92
3
65
3
84
3
101
3
86
3
70
3
56
3
43
3
11
3
19
3
26
3
32
3
42
3
27
3
14
3
246
2
255
2
0
3
5
3
6
3
10
3
8
3
13
3
236
2
218
2
251
2
254
2
20
3
43
3
72
3
88
3
80
3
55
3
43
3
30
3
36
3
34
3
39
3
26
3
42
3
46
3
50
3
59
3
80
3
83
3
99
3
122
3
121
3
121
3
130
3
133
3
148
3
149
3
138
3
144
3
166
3
191
3
203
3
195
3
203
3
216
3
227
3
211
3
215
3
216
3
227
3
218
3
230
3
225
3
224
3
223
3
205
3
198
3
183
3
183
3
197
3
227
3
224
3
228
3
235
3
206
3
180
3
198
3
200
3
200
3
201
3
214
3
218
3
206
3
188
