0
0
0
0
0
0
0
0
0
0
0
0
0
0
0
0
0
0
0
0
0
0
0
0
0
0
0
0
0
0
0
0
0
0
0
0
0
0
0
0
0
0
0
0
0
0
0
0
0
0
0
0
0
0
0
0
0
0
0
0
0
0
0
0
0
0
0
0
0
0
0
0
0
0
0
0
0
0
0
0
0
0
0
0
0
0
0
0
0
0
0
0
0
0
0
0
0
0
0
0
0
0
0
0
0
0
0
0
0
0
0
0
0
0
0
0
0
0
0
0
0
0
0
0
0
0
0
0
0
0
0
0
0
0
0
0
0
0
0
0
0
0
0
0
0
0
0
0
0
0
0
0
0
0
0
0
0
0
0
0
0
0
0
0
0
0
0
0
0
0
0
0
0
0
0
0
0
0
0
0
0
0
0
0
0
0
0
0
0
0
0
0
0
0
0
0
0
0
0
0
0
0
0
0
0
0
0
0
0
0
0
0
0
0
0
0
0
0
0
0
0
0
0
0
0
0
0
0
0
0
0
0
0
0
0
0
0
0
0
0
0
0
0
0
0
0
0
0
0
0
0
0
0
0
0
0
0
0
0
0
0
0
0
0
0
0
0
0
0
0
0
0
0
0
0
0
0
0
0
0
0
0
0
0
0
0
0
0
0
0
0
0
0
0
0
0
0
0
0
0
0
0
0
0
0
0
0
0
0
0
0
0
0
0
0
0
0
0
0
0
0
0
0
0
0
0
0
0
0
0
0
0
0
0
0
0
0
0
0
0
0
0
0
0
0
0
0
0
0
0
0
0
0
0
0
0
0
0
0
0
0
0
0
0
0
0
0
0
0
0
0
0
0
0
0
0
0
0
0
0
0
0
0
0
0
0
0
0
0
0
0
0
0
0
0
0
0
0
0
0
0
0
0
0
0
0
0
0
0
0
0
0
0
0
0
0
0
0
0
0
0
0
0
0
0
0
0
0
0
0
0
0
0
0
0
0
0
0
0
0
0
0
0
0
0
0
0
0
0
0
0
0
0
0
0
0
0
0
0
0
0
0
0
0
0
0
0
0
0
0
0
0
0
0
0
0
0
0
0
0
0
0
0
0
0
0
0
0
0
0
0
0
0
0
0
0
0
0
0
0
0
0
0
0
0
0
0
0
0
0
0
0
0
0
0
0
0
0
0
0
0
0
0
0
0
0
0
0
0
0
0
0
0
0
0
0
0
0
0
0
0
0
0
0
0
0
0
0
0
0
0
0
0
0
0
0
0
0
0
0
0
0
0
0
0
0
0
0
0
0
0
0
0
0
0
0
0
0
0
0
0
0
0
0
0
0
0
0
0
0
0
0
0
0
0
0
0
0
0
0
0
0
0
0
0
0
0
0
0
0
0
0
0
0
0
0
0
0
0
0
0
0
0
0
0
0
0
0
0
0
0
0
0
0
0
0
0
0
0
0
0
0
0
0
0
0
0
0
0
0
0
0
0
0
0
0
0
0
0
0
0
0
0
0
0
0
0
0
0
0
0
0
0
0
0
0
0
0
0
0
0
0
0
0
0
0
0
0
0
0
0
0
0
0
0
0
0
0
0
0
0
0
0
0
0
0
0
0
0
0
0
0
0
0
0
0
0
0
0
0
0
0
0
0
0
0
0
0
0
0
0
0
0
0
0
0
0
0
0
0
0
0
0
0
0
0
0
0
0
0
0
0
0
0
0
0
0
0
0
0
0
0
0
0
0
0
0
0
0
0
0
0
0
0
0
0
0
0
0
0
0
0
0
0
0
0
0
0
0
0
0
0
0
0
0
0
0
0
0
0
0
0
0
0
0
0
0
0
0
0
0
0
0
0
0
0
0
0
0
0
0
0
0
0
0
0
0
0
0
0
0
0
0
0
0
0
0
0
0
0
0
0
0
0
0
0
0
0
0
0
0
0
0
0
0
0
0
0
0
0
0
0
0
0
0
0
0
0
0
0
0
0
0
0
0
0
0
0
0
0
0
0
0
0
0
0
0
0
0
0
0
0
0
0
0
0
0
0
0
0
0
0
0
0
0
0
0
0
0
0
0
0
0
0
0
0
0
0
0
0
0
0
0
0
0
0
0
0
0
0
0
0
0
0
0
0
0
0
0
0
0
0
0
0
0
0
0
0
0
0
0
0
0
0
0
0
0
0
0
0
0
0
0
0
0
0
0
0
0
0
0
0
0
0
0
0
0
0
0
0
0
0
0
0
0
0
0
0
0
0
0
0
0
0
0
0
0
0
0
0
0
0
0
0
0
0
0
0
0
0
0
0
0
0
0
0
0
0
0
0
0
0
0
0
0
0
0
0
0
0
0
0
0
0
0
0
0
0
0
0
0
0
0
0
0
0
0
0
0
0
0
0
0
0
0
0
0
0
0
0
0
0
0
0
0
0
0
0
0
0
0
0
0
0
0
0
0
0
0
0
0
0
0
0
0
0
0
0
0
0
0
0
0
0
0
0
0
0
0
0
0
0
0
0
0
0
0
0
0
0
0
0
0
0
0
0
0
0
0
0
0
0
0
0
0
0
0
0
0
0
0
0
0
0
0
0
0
0
0
0
0
0
0
0
0
0
0
0
0
0
0
0
0
0
0
0
0
0
0
0
0
0
0
0
0
0
0
0
0
0
0
0
0
0
0
0
0
0
0
0
0
0
0
0
0
0
0
0
0
0
0
0
0
0
0
0
0
0
0
0
0
0
0
0
0
0
0
0
0
0
0
0
0
0
0
0
0
0
0
0
0
0
0
0
0
0
0
0
0
0
0
0
0
0
0
0
0
0
0
0
0
0
0
0
0
0
0
0
0
0
0
0
0
0
0
0
0
0
0
0
0
0
0
0
0
0
0
0
0
0
0
0
0
0
0
0
0
0
0
0
0
0
0
0
0
0
0
0
0
0
0
0
0
0
0
0
0
0
0
0
0
0
0
0
0
0
0
0
0
0
0
0
0
0
0
0
0
0
0
0
0
0
0
0
0
0
0
0
0
0
0
0
0
0
0
0
0
0
0
0
0
0
0
0
0
0
0
0
0
0
0
0
0
0
0
0
0
0
0
0
0
0
0
0
0
0
0
0
0
0
0
0
0
0
0
0
0
0
0
0
0
0
0
0
0
0
0
0
0
0
0
0
0
0
0
0
0
0
0
0
0
0
0
0
0
0
0
0
0
0
0
0
0
0
0
0
0
0
0
0
0
0
0
0
0
0
0
0
0
0
0
0
0
0
0
0
0
0
0
0
0
0
0
0
0
0
0
0
0
0
0
0
0
0
0
0
0
0
0
0
0
0
0
0
0
0
0
0
0
0
0
0
0
0
0
0
0
0
0
0
0
0
0
0
0
0
0
0
0
0
0
0
0
0
0
0
0
0
0
0
0
0
0
0
0
0
0
0
0
0
0
0
0
0
0
0
0
0
0
0
0
0
0
0
0
0
0
0
0
0
0
0
0
0
0
0
0
0
0
0
0
0
0
0
0
0
0
0
0
0
0
0
0
0
0
0
0
0
0
0
0
0
0
0
0
0
0
0
0
0
0
0
0
0
0
0
0
0
0
0
0
0
0
0
0
0
0
0
0
0
0
0
0
0
0
0
0
0
0
0
0
0
0
0
0
0
0
0
0
0
0
0
0
0
0
0
0
0
0
0
0
0
0
0
0
0
0
0
0
0
0
0
0
0
0
0
0
0
0
0
0
0
0
0
0
0
0
0
0
0
0
0
0
0
0
0
0
0
0
0
0
0
0
0
0
0
0
0
0
0
0
0
0
0
0
0
0
0
0
0
0
0
0
0
0
0
0
0
0
0
0
0
0
0
0
0
0
0
0
0
0
0
0
0
0
0
0
0
0
0
0
0
0
0
0
0
0
0
0
0
0
0
0
0
0
0
0
0
0
0
0
0
0
0
0
0
0
0
0
0
0
0
0
0
0
0
0
0
0
0
0
0
0
0
0
0
0
0
0
0
0
0
0
0
0
0
0
0
0
0
0
0
0
0
0
0
0
0
0
0
0
0
0
0
0
0
0
0
0
0
0
0
0
0
0
0
0
0
0
0
0
0
0
0
0
0
0
0
0
0
0
0
0
0
0
0
0
0
0
0
0
0
0
0
0
0
0
0
0
0
0
0
0
0
0
0
0
0
0
0
0
0
0
0
0
0
0
0
0
0
0
0
0
0
0
0
0
0
0
0
0
0
0
0
0
0
0
0
0
0
0
0
0
0
0
0
0
0
0
0
0
0
0
0
0
0
0
0
0
0
0
0
0
0
0
0
0
0
0
0
0
0
0
0
0
0
0
0
0
0
0
0
0
0
0
0
0
0
0
0
0
0
0
0
0
0
0
0
0
0
0
0
0
0
0
0
0
0
0
0
0
0
0
0
0
0
0
0
0
0
0
0
0
0
0
0
0
0
0
0
0
0
0
0
0
0
0
0
0
0
0
0
0
0
0
0
0
0
0
0
0
0
0
0
0
0
0
0
0
0
0
0
0
0
0
0
0
0
0
0
0
0
0
0
0
0
0
0
0
0
0
0
0
0
0
0
0
0
0
0
0
0
0
0
0
0
0
0
0
0
0
0
0
0
0
0
0
0
0
0
0
0
0
0
0
0
0
0
27
3
2
0
0
0
34
2
77
7
201
11
229
10
47
4
0
0
0
0
207
0
231
5
48
11
33
11
211
4
0
0
1
0
46
0
150
4
200
9
159
10
160
5
0
0
1
0
0
0
132
3
101
8
6
10
91
6
0
0
1
0
0
0
20
2
212
6
188
9
89
7
11
1
0
0
4
0
10
1
132
5
103
9
134
8
145
2
0
0
1
0
173
0
210
4
44
9
93
9
68
4
0
0
0
0
0
0
195
3
180
8
46
10
106
6
212
0
0
0
67
0
140
3
60
7
82
8
60
6
89
3
239
2
52
5
52
7
151
7
224
5
9
3
47
1
168
1
137
3
87
5
4
6
8
5
190
2
199
0
210
0
129
2
84
4
72
5
190
4
158
2
88
0
0
0
30
1
24
3
126
4
156
4
252
2
228
0
73
0
181
1
178
3
8
5
0
5
82
3
85
1
232
0
134
2
168
4
228
5
147
5
158
3
120
1
0
1
127
2
156
4
19
6
16
6
136
4
102
2
86
1
78
2
99
4
40
6
188
6
191
5
44
3
109
1
114
2
221
4
200
6
3
7
68
5
175
2
118
1
169
2
52
5
54
7
191
7
132
6
3
4
52
2
132
2
111
4
76
6
64
7
167
6
204
4
213
2
6
2
164
2
152
4
170
6
204
7
92
7
79
5
41
3
244
2
151
4
144
6
228
7
187
7
172
5
30
3
86
2
149
3
152
5
11
7
52
7
132
5
35
3
34
2
40
3
15
5
168
6
40
7
194
5
88
3
229
1
138
2
92
4
44
6
227
6
221
5
160
3
224
1
18
2
204
3
158
5
132
6
230
5
202
3
180
1
132
1
11
3
225
4
4
6
191
5
204
3
152
1
8
1
84
2
56
4
151
5
176
5
4
4
202
1
208
0
208
1
179
3
80
5
220
5
182
4
108
2
212
0
71
1
8
3
248
4
239
5
36
5
236
2
249
0
236
0
144
2
167
4
240
5
180
5
183
3
106
1
245
0
138
2
150
4
20
6
27
6
61
4
236
1
46
1
118
2
116
4
5
6
80
6
200
4
113
2
53
1
22
2
247
3
172
5
104
6
87
5
8
3
108
1
218
1
148
3
92
5
55
6
100
5
56
3
97
1
117
1
30
3
2
5
252
5
136
5
140
3
136
1
68
1
198
2
172
4
253
5
237
5
22
4
220
1
71
1
172
2
172
4
39
6
61
6
132
4
71
2
97
1
172
2
3
5
112
6
36
6
91
4
140
2
36
1
134
1
136
3
222
5
43
7
108
6
4
4
198
1
140
1
64
3
131
5
30
7
40
7
1
5
254
1
237
0
83
2
184
4
204
6
130
7
164
5
116
2
175
0
153
1
224
3
71
6
128
7
12
6
203
2
230
0
140
1
151
3
201
5
20
7
78
6
108
3
168
0
135
0
152
2
29
5
163
6
40
6
169
3
150
1
207
1
212
3
3
6
4
7
240
5
12
3
209
0
41
1
139
3
80
6
182
7
19
8
148
6
8
3
0
0
0
0
48
1
199
4
164
8
68
9
255
4
0
0
0
0
43
1
244
4
46
8
161
8
100
5
81
0
0
0
0
0
72
3
2
8
60
11
4
9
243
1
0
0
0
0
226
1
76
7
174
11
99
10
113
3
0
0
1
0
44
1
64
6
96
11
61
11
0
5
0
0
0
0
17
0
238
4
228
10
124
12
123
7
0
0
0
0
18
0
4
5
60
11
35
14
84
10
172
2
0
0
17
0
236
4
255
10
132
14
104
11
155
3
0
0
0
0
74
3
28
8
180
11
91
10
72
4
0
0
0
0
63
2
212
6
7
11
112
10
4
5
0
0
0
0
136
1
207
5
180
9
166
9
39
5
0
0
0
0
126
1
126
5
228
8
39
9
124
5
9
1
0
0
244
1
72
5
61
8
16
9
108
6
29
2
38
0
152
1
179
4
140
7
156
8
123
6
116
2
92
0
118
1
16
4
208
6
113
8
45
7
174
3
41
1
145
1
204
3
115
6
29
8
40
7
3
4
69
1
56
1
22
3
214
5
228
7
47
7
156
3
64
0
0
0
92
2
192
5
32
8
237
7
232
4
15
1
0
0
121
1
151
4
84
7
38
8
177
5
152
1
0
0
162
1
216
4
134
7
39
8
88
5
5
1
0
0
204
0
20
4
6
7
36
8
20
6
37
2
0
0
236
0
32
4
37
7
94
8
175
6
244
2
97
0
42
1
249
3
184
6
215
7
228
6
16
4
54
1
88
0
248
1
167
4
8
7
198
7
211
5
109
2
192
0
218
1
120
4
54
7
211
8
223
7
205
4
100
2
129
2
108
4
47
7
4
10
31
10
123
6
13
3
56
4
17
8
84
11
20
12
71
9
92
4
20
1
10
2
12
6
38
10
243
11
152
9
184
4
6
2
229
3
44
8
183
11
120
12
174
9
73
5
228
2
56
4
21
6
60
7
180
8
193
9
28
9
252
6
115
5
244
5
172
7
32
9
24
9
15
7
67
4
240
2
72
4
87
7
224
9
14
10
7
7
205
2
9
1
14
3
165
6
100
9
160
9
168
6
169
2
11
1
20
3
214
6
224
9
88
10
140
7
3
3
90
0
168
1
96
5
200
8
216
9
139
7
231
2
0
0
96
0
253
3
206
7
163
9
21
8
140
3
0
0
0
0
204
2
42
7
228
9
60
9
255
4
74
0
0
0
130
2
68
7
204
10
207
10
222
6
168
1
0
0
240
1
188
6
192
10
132
11
24
8
96
2
0
0
125
0
215
4
37
9
164
10
215
7
31
2
0
0
0
0
47
3
192
7
243
9
16
8
192
2
0
0
0
0
25
2
198
6
172
9
196
8
214
3
0
0
0
0
93
1
248
5
118
9
96
9
4
5
0
0
0
0
169
0
36
5
32
9
204
9
64
6
142
0
0
0
0
0
3
4
61
8
192
9
15
7
94
1
0
0
0
0
108
2
156
6
167
8
208
6
196
1
0
0
0
0
133
1
157
5
21
8
8
7
106
2
0
0
0
0
232
0
213
4
192
7
119
7
80
3
0
0
0
0
55
0
230
3
67
7
164
7
44
4
0
0
0
0
0
0
103
3
40
7
52
8
97
5
20
0
0
0
0
0
153
2
192
6
131
8
68
6
220
0
0
0
0
0
186
1
35
6
158
8
68
7
57
2
0
0
0
0
190
1
93
6
110
9
219
8
92
4
0
0
0
0
129
1
60
6
142
9
68
9
206
4
0
0
0
0
0
0
10
4
245
7
200
8
91
5
0
0
0
0
0
0
198
2
8
7
179
8
52
6
116
0
0
0
0
0
212
1
32
6
104
8
236
6
215
1
0
0
0
0
36
1
60
5
40
8
163
7
55
3
0
0
0
0
52
0
32
4
123
7
204
7
92
4
0
0
0
0
0
0
238
2
84
6
104
7
119
5
127
1
0
0
0
0
9
2
108
5
96
7
100
6
224
2
0
0
0
0
174
0
239
2
173
4
37
5
230
3
117
1
0
0
0
0
205
1
66
4
223
5
133
5
60
3
180
0
32
0
200
1
94
4
95
6
200
6
7
5
76
2
244
0
227
1
36
4
92
6
65
7
224
5
14
3
41
1
168
1
196
3
39
6
116
7
164
6
14
4
168
1
120
1
53
3
148
5
60
7
243
6
144
4
232
1
22
1
87
2
121
4
49
6
108
6
94
4
96
1
0
0
218
0
7
3
21
5
228
5
51
4
0
1
0
0
0
0
14
2
92
4
174
5
193
4
76
2
111
0
220
0
241
2
160
5
104
7
12
7
187
4
88
2
40
2
39
4
214
6
228
8
19
9
253
6
96
4
114
3
209
4
84
7
99
9
190
9
212
7
219
4
104
3
84
4
106
6
104
8
60
9
219
7
33
5
132
3
85
4
112
6
156
8
195
9
168
8
222
5
187
3
252
3
8
6
87
8
172
9
240
8
91
6
240
3
228
3
197
5
28
8
174
9
113
9
53
7
209
4
135
4
100
6
238
8
226
10
24
11
44
9
150
6
168
5
8
7
119
9
132
11
30
12
115
10
212
7
206
6
135
8
156
11
124
14
160
15
8
13
28
9
171
10
125
15
254
15
255
15
252
15
76
13
71
9
8
9
148
12
255
15
252
15
244
14
111
9
228
3
121
2
122
5
104
9
188
11
231
10
141
6
172
1
0
0
108
2
116
6
75
9
44
9
196
5
231
0
0
0
0
0
225
1
63
4
221
4
18
3
0
0
0
0
1
0
0
0
0
0
0
0
0
0
0
0
0
0
0
0
0
0
0
0
0
0
0
0
0
0
0
0
0
0
0
0
0
0
0
0
0
0
0
0
0
0
0
0
0
0
0
0
0
0
30
0
172
0
0
0
0
0
0
0
0
0
0
0
173
1
103
2
225
0
0
0
0
0
0
0
12
0
39
2
172
3
36
3
194
0
0
0
0
0
158
0
233
2
168
4
166
4
124
2
0
0
0
0
92
0
132
2
146
4
36
5
93
3
119
0
0
0
22
0
76
2
132
4
164
5
143
4
229
1
0
0
57
0
61
2
168
4
83
6
196
5
40
3
143
0
34
0
193
1
51
4
52
6
47
6
186
3
162
0
0
0
212
0
110
3
30
6
112
7
248
5
8
2
1
0
2
0
135
2
235
5
186
7
72
6
186
2
131
0
87
1
3
4
4
7
251
8
86
8
108
5
179
2
100
2
102
4
24
7
208
8
234
7
116
4
19
1
164
0
232
2
162
5
98
7
18
7
148
4
206
1
47
1
36
3
78
6
2
9
158
9
115
7
216
3
37
2
66
3
239
5
167
8
8
10
111
8
200
4
16
2
68
2
87
4
34
7
72
9
188
8
124
5
248
1
215
0
116
2
130
5
246
7
234
7
43
5
229
1
6
1
178
2
153
5
216
7
197
7
1
5
158
1
110
0
228
1
178
4
74
7
31
8
76
6
34
3
160
1
218
2
173
5
102
8
166
9
20
8
166
4
102
2
2
3
132
5
114
8
66
10
88
9
52
6
140
3
141
3
174
5
136
8
135
10
250
9
250
6
203
3
2
3
153
4
12
7
210
8
143
8
250
5
196
2
156
1
244
2
118
5
143
7
229
7
176
5
104
2
215
0
217
1
40
4
62
6
232
6
65
5
61
2
142
0
88
1
138
3
184
5
157
6
44
5
90
2
146
0
19
1
8
3
45
5
60
6
46
5
160
2
167
0
198
0
118
2
118
4
142
5
204
4
102
2
64
0
0
0
125
1
124
3
188
4
108
4
108
2
58
0
0
0
246
0
248
2
114
4
122
4
207
2
181
0
0
0
232
0
159
2
12
4
83
4
247
2
254
0
14
0
189
0
66
2
169
3
0
4
222
2
255
0
0
0
76
0
204
1
73
3
206
3
210
2
239
0
0
0
0
0
67
1
168
2
80
3
165
2
4
1
0
0
1
0
38
1
190
2
129
3
224
2
64
1
0
0
0
0
68
1
239
2
232
3
168
3
49
2
194
0
126
0
115
1
232
2
4
4
71
4
68
3
166
1
163
0
30
1
147
2
239
3
118
4
216
3
49
2
204
0
212
0
51
2
230
3
220
4
66
4
88
2
154
0
144
0
50
2
90
4
115
5
142
4
34
2
59
0
128
0
156
2
17
5
116
6
224
5
139
3
108
1
96
1
57
3
146
5
16
7
204
6
156
4
75
2
192
1
14
3
37
5
192
6
232
6
67
5
29
3
46
2
255
2
185
4
86
6
11
7
104
6
176
4
12
3
173
2
204
3
143
5
204
6
222
6
110
5
111
3
77
2
214
2
94
4
244
5
184
6
4
6
16
4
96
2
22
2
25
3
206
4
13
6
16
6
92
4
100
2
170
1
118
2
45
4
204
5
72
6
7
5
4
3
254
1
153
2
56
4
227
5
190
6
14
6
21
4
177
2
252
2
120
4
34
6
30
7
111
6
137
4
52
3
136
3
2
5
186
6
122
7
68
6
112
4
192
3
183
4
116
6
253
7
121
8
96
7
120
5
75
4
172
4
43
6
218
7
166
8
225
7
21
6
162
4
150
4
180
5
104
7
148
8
159
8
60
7
78
5
146
4
156
5
123
7
46
9
206
9
200
8
250
6
26
6
236
6
246
8
234
10
131
11
22
10
96
7
128
5
198
5
85
7
245
8
124
9
42
8
248
5
178
4
112
5
136
7
164
9
118
10
49
9
168
6
216
4
28
5
2
7
38
9
53
10
70
9
216
6
212
4
228
4
224
6
44
9
98
10
154
9
236
6
51
4
173
3
98
5
172
7
22
9
140
8
226
5
236
2
2
2
127
3
240
5
188
7
162
7
66
5
48
2
213
0
212
1
4
4
242
5
61
6
88
4
105
1
0
0
58
0
89
2
120
4
56
5
214
3
8
1
0
0
0
0
214
0
232
2
6
4
54
3
186
0
0
0
0
0
0
0
173
1
38
3
232
2
169
0
0
0
0
0
0
0
80
1
54
3
48
3
144
0
0
0
0
0
0
0
100
1
143
3
186
3
22
1
0
0
0
0
0
0
199
0
64
3
220
3
109
1
0
0
0
0
0
0
44
0
114
2
95
3
182
1
0
0
0
0
0
0
0
0
119
2
255
3
8
3
0
0
0
0
0
0
23
0
174
2
160
4
32
4
28
1
0
0
0
0
0
0
102
2
215
4
22
5
110
2
0
0
0
0
24
0
247
2
208
5
154
6
138
4
240
0
0
0
32
0
84
3
145
6
50
8
4
8
226
6
100
3
78
0
254
0
47
4
224
7
249
9
98
8
60
4
32
1
229
1
54
5
153
8
108
10
110
9
64
5
39
1
52
1
90
4
241
7
226
9
187
8
12
4
0
0
0
0
117
2
160
6
24
9
2
8
109
3
0
0
1
0
252
0
207
4
172
7
92
7
88
3
0
0
0
0
158
0
43
4
216
6
126
6
96
2
0
0
0
0
0
0
25
3
8
6
110
6
46
3
0
0
0
0
0
0
192
0
198
3
224
4
148
2
0
0
0
0
0
0
0
0
84
1
194
3
37
4
26
1
0
0
0
0
0
0
0
0
35
2
192
3
170
1
0
0
0
0
0
0
1
0
28
0
114
0
0
0
0
0
0
0
0
0
0
0
0
0
0
0
0
0
0
0
0
0
0
0
0
0
0
0
0
0
0
0
0
0
0
0
0
0
0
0
56
0
218
0
0
0
0
0
0
0
0
0
0
0
98
0
104
1
52
0
0
0
0
0
0
0
0
0
187
1
88
3
250
2
80
0
0
0
0
0
0
0
236
1
90
4
244
4
4
3
0
0
0
0
0
0
252
1
171
4
54
6
195
5
109
3
78
1
108
1
143
3
36
6
228
7
214
7
178
5
220
2
214
1
70
3
203
5
218
7
87
8
104
6
21
3
244
0
95
1
85
3
86
5
54
6
208
4
188
1
0
0
0
0
206
1
82
4
244
5
138
5
15
3
88
0
0
0
18
1
133
3
148
5
190
5
113
3
24
0
0
0
0
0
10
2
59
4
92
5
46
4
62
1
0
0
0
0
66
1
176
3
118
5
232
4
100
2
36
0
44
0
21
2
230
4
44
7
122
7
188
5
172
3
101
3
254
4
174
7
132
9
118
9
253
6
193
3
104
2
138
3
212
5
224
7
134
8
240
6
230
3
224
1
29
2
220
3
214
5
221
6
170
5
180
2
69
0
106
0
84
2
208
4
128
6
0
6
131
3
246
0
108
0
231
1
132
4
4
7
186
7
42
6
190
3
243
2
113
4
78
7
242
9
202
10
34
9
112
6
100
5
161
6
52
9
140
11
177
12
174
11
36
9
166
7
132
8
184
10
253
12
64
14
20
13
13
10
145
7
74
7
177
8
180
10
12
12
2
11
174
7
108
4
120
3
142
4
152
6
67
8
228
7
246
4
118
1
59
0
140
1
46
4
127
6
234
6
172
4
77
1
0
0
200
0
103
3
236
5
226
6
81
5
76
2
202
0
175
1
216
3
46
6
38
7
166
5
204
2
141
0
148
0
120
2
103
4
242
4
83
3
61
0
0
0
0
0
0
0
22
0
0
0
0
0
0
0
0
0
1
0
0
0
0
0
1
0
0
0
0
0
0
0
0
0
0
0
0
0
0
0
0
0
0
0
0
0
0
0
0
0
0
0
0
0
1
0
0
0
0
0
1
0
0
0
0
0
57
1
0
0
0
0
0
0
90
2
3
10
68
15
60
15
111
9
151
1
0
0
182
5
52
14
254
15
255
15
162
11
58
2
0
0
205
1
114
9
137
14
46
14
162
7
0
0
0
0
0
0
70
2
124
7
42
9
216
4
0
0
0
0
0
0
245
1
162
8
147
12
215
10
100
3
0
0
0
0
78
5
62
14
255
15
254
15
190
12
162
5
234
3
19
11
255
15
255
15
255
15
255
15
226
15
81
15
255
15
254
15
255
15
255
15
255
15
255
15
255
15
255
15
255
15
255
15
254
15
255
15
255
15
254
15
255
15
255
15
255
15
255
15
255
15
254
15
255
15
255
15
254
15
255
15
255
15
255
15
255
15
255
15
254
15
255
15
255
15
254
15
255
15
255
15
118
9
92
1
241
1
96
9
255
15
255
15
154
12
98
1
0
0
0
0
232
0
90
6
86
9
32
6
1
0
0
0
0
0
0
0
0
0
254
1
158
0
0
0
0
0
0
0
0
0
0
0
14
0
0
0
0
0
0
0
0
0
0
0
0
0
0
0
0
0
0
0
0
0
0
0
0
0
0
0
0
0
0
0
0
0
0
0
1
0
0
0
0
0
0
0
0
0
0
0
0
0
0
0
0
0
0
0
0
0
0
0
0
0
0
0
0
0
0
0
0
0
0
0
0
0
0
0
0
0
0
0
0
0
0
0
0
0
0
0
0
0
0
0
0
0
0
0
0
0
0
0
0
0
1
0
0
0
0
0
1
0
0
0
0
0
1
0
0
0
0
0
1
0
0
0
0
0
1
0
0
0
36
3
183
6
132
6
138
2
0
0
182
0
127
6
140
12
196
15
232
14
150
9
52
4
238
3
220
8
166
14
255
15
255
15
255
11
234
6
153
6
106
11
255
15
255
15
254
15
131
15
206
11
110
10
50
13
255
15
254
15
255
15
255
15
246
14
111
12
132
12
78
15
255
15
255
15
255
15
253
15
196
13
34
12
98
13
254
15
255
15
255
15
255
15
25
13
114
10
249
10
253
13
253
15
254
15
75
15
75
11
171
7
143
7
249
9
136
12
167
13
34
12
209
8
252
4
80
3
11
4
173
5
118
6
35
5
125
1
0
0
0
0
97
2
220
5
255
6
52
4
0
0
0
0
0
0
110
3
123
7
149
8
200
5
0
0
0
0
0
0
154
2
37
7
232
8
27
6
0
0
0
0
0
0
164
1
172
6
83
9
108
7
232
0
0
0
0
0
180
1
75
7
191
10
142
8
255
0
0
0
0
0
2
0
0
0
180
0
38
0
0
0
0
0
0
0
0
0
0
0
0
0
0
0
0
0
0
0
0
0
0
0
0
0
0
0
0
0
0
0
0
0
0
0
0
0
0
0
0
0
0
0
0
0
0
0
0
0
0
0
0
0
0
0
0
0
0
0
0
0
0
0
0
0
0
0
0
0
0
0
0
0
0
0
0
0
0
0
0
0
64
0
154
4
252
8
52
11
151
11
44
13
254
15
255
15
252
15
254
15
255
15
252
15
252
15
255
15
252
15
254
15
255
15
252
15
254
15
255
15
252
15
252
15
255
15
252
15
254
15
255
15
252
15
254
15
255
15
252
15
254
15
255
15
252
15
252
15
255
15
252
15
254
15
255
15
252
15
254
15
255
15
252
15
254
15
255
15
252
15
254
15
247
13
176
9
142
6
101
6
16
8
212
8
155
7
4
4
0
0
0
0
0
0
148
0
30
4
216
6
222
6
139
2
0
0
0
0
242
0
149
7
94
13
35
13
204
4
0
0
0
0
0
0
124
4
231
10
40
12
88
5
1
0
0
0
0
0
165
2
48
10
238
12
122
6
0
0
0
0
0
0
71
1
116
8
147
11
77
5
0
0
0
0
0
0
0
0
171
1
228
3
0
0
0
0
0
0
0
0
0
0
0
0
0
0
0
0
0
0
0
0
0
0
0
0
0
0
0
0
0
0
0
0
0
0
0
0
0
0
0
0
225
5
118
9
59
4
0
0
0
0
0
0
40
11
254
15
255
15
252
15
72
15
23
10
63
14
252
15
255
15
252
15
254
15
255
15
208
10
184
8
255
15
252
15
254
15
255
15
222
13
164
0
0
0
221
3
254
15
255
15
252
15
128
12
0
0
0
0
134
0
145
11
252
15
254
15
171
13
0
0
0
0
0
0
127
6
252
15
255
15
141
13
104
0
0
0
0
0
128
2
71
11
252
15
95
15
32
7
0
0
0
0
107
1
85
9
254
15
255
15
84
15
216
8
71
3
76
4
196
10
255
15
252
15
254
15
32
12
76
5
124
2
227
5
216
9
14
13
19
13
24
10
140
7
189
3
204
1
255
3
231
7
221
9
70
7
39
1
0
0
132
0
182
4
84
8
206
8
15
5
0
0
0
0
0
0
161
2
40
6
79
6
223
1
0
0
0
0
0
0
132
1
35
5
92
5
211
0
0
0
0
0
0
0
0
0
13
4
196
6
237
4
0
0
0
0
0
0
0
0
41
3
43
6
97
4
0
0
0
0
0
0
0
0
227
1
16
5
108
5
178
1
0
0
0
0
0
0
157
2
92
5
203
6
95
6
254
3
231
0
0
0
0
0
0
0
98
2
132
6
123
9
181
7
84
2
0
0
49
0
56
4
55
9
164
12
36
11
183
5
231
0
209
0
77
3
133
7
84
11
55
11
152
6
144
1
15
0
29
2
136
5
35
9
68
9
93
5
124
0
0
0
24
0
115
3
108
7
24
9
23
6
152
0
0
0
0
0
118
1
232
4
79
7
124
5
0
0
0
0
0
0
0
0
239
2
4
7
136
6
202
0
0
0
0
0
0
0
52
2
128
6
203
6
126
1
0
0
0
0
0
0
108
0
237
3
118
4
5
0
0
0
0
0
0
0
0
0
223
1
225
1
0
0
0
0
0
0
0
0
0
0
6
0
0
0
0
0
0
0
0
0
0
0
0
0
23
0
0
0
0
0
0
0
0
0
0
0
3
2
69
3
193
1
0
0
0
0
0
0
82
2
101
4
222
4
93
3
81
0
0
0
0
0
148
1
16
4
43
5
244
3
221
0
0
0
0
0
165
0
247
2
144
4
94
4
87
2
0
0
0
0
32
1
173
3
152
5
239
5
80
4
196
1
62
0
254
0
109
3
224
5
5
7
48
6
219
3
196
1
160
1
111
3
209
5
104
7
81
7
89
5
233
2
26
2
24
3
150
4
83
5
120
4
201
1
0
0
0
0
0
0
0
0
0
0
0
0
0
0
0
0
0
0
0
0
0
0
0
0
0
0
0
0
0
0
0
0
0
0
0
0
0
0
0
0
0
0
0
0
0
0
0
0
199
4
176
9
68
10
61
4
0
0
0
0
214
0
164
8
92
15
255
15
252
15
254
15
255
15
252
15
254
15
255
15
252
15
254
15
255
15
252
15
254
15
255
15
252
15
254
15
255
15
252
15
104
12
211
8
205
9
252
12
255
15
252
15
254
15
87
14
24
12
88
12
243
15
252
15
254
15
255
15
252
15
254
15
255
15
252
15
252
15
255
15
252
15
254
15
251
14
228
11
132
10
3
9
132
10
68
14
251
15
124
14
84
7
165
0
0
0
64
2
47
8
0
13
164
11
98
4
0
0
0
0
0
0
49
3
72
7
177
7
148
2
0
0
0
0
0
0
196
0
29
5
224
6
17
3
0
0
0
0
0
0
94
0
52
5
212
8
5
7
176
1
0
0
214
2
20
8
232
11
50
12
136
8
216
3
102
3
165
7
132
12
241
14
164
13
192
8
210
3
127
2
120
5
102
9
84
12
60
13
251
10
188
6
152
3
160
3
5
6
254
8
160
10
20
9
248
4
91
1
240
0
68
3
119
6
124
8
180
7
37
4
121
0
0
0
15
2
128
5
36
8
107
8
129
5
77
1
0
0
158
0
120
3
75
7
112
8
204
4
0
0
0
0
45
0
222
3
156
7
174
8
117
5
0
0
0
0
0
0
4
2
248
5
239
7
184
5
79
0
0
0
0
0
200
1
103
6
16
9
69
7
67
2
0
0
0
0
30
3
172
7
68
10
207
8
94
3
0
0
0
0
24
3
152
8
79
12
208
11
200
6
167
0
0
0
40
2
160
6
84
10
60
11
110
7
54
1
0
0
132
0
221
4
40
9
167
10
156
7
197
1
0
0
0
0
236
3
127
8
100
10
244
7
86
2
0
0
0
0
218
1
56
6
84
9
191
8
92
3
0
0
0
0
253
0
30
6
187
9
85
8
81
2
0
0
0
0
78
0
207
3
108
6
192
5
110
1
0
0
0
0
0
0
108
3
44
6
190
5
185
1
0
0
0
0
0
0
188
2
187
5
184
5
233
1
0
0
0
0
0
0
214
2
48
6
120
6
205
2
0
0
0
0
0
0
216
1
36
5
215
5
129
2
0
0
0
0
0
0
0
0
44
0
228
0
0
0
0
0
0
0
0
0
0
0
0
0
184
0
174
0
0
0
0
0
0
0
246
0
72
4
187
6
240
6
236
4
96
2
53
1
89
1
202
2
184
4
92
6
224
6
140
4
197
1
229
1
76
4
184
6
35
7
12
5
8
2
171
0
88
2
108
5
43
8
228
8
132
6
151
2
123
0
188
1
61
5
92
8
64
9
155
6
126
1
0
0
0
0
133
1
84
4
139
5
124
3
0
0
0
0
0
0
0
0
61
2
159
3
78
2
0
0
0
0
0
0
175
0
41
4
12
7
210
7
180
4
250
0
0
0
57
3
20
8
195
11
244
11
72
8
11
3
189
0
164
3
83
9
24
14
206
15
161
13
20
9
46
6
55
8
141
13
254
15
255
15
252
15
100
14
155
11
148
12
254
15
255
15
252
15
254
15
255
15
132
15
40
15
255
15
252
15
254
15
255
15
252
15
254
15
255
15
252
15
254
15
255
15
252
15
254
15
255
15
252
15
254
15
255
15
252
15
254
15
255
15
252
15
254
15
255
15
252
15
252
15
255
15
252
15
254
15
255
15
252
15
254
15
255
15
252
15
254
15
255
15
252
15
254
15
255
15
252
15
252
15
255
15
252
15
254
15
255
15
252
15
254
15
255
15
252
15
254
15
255
15
223
14
252
15
255
15
252
15
254
15
255
15
188
12
148
8
17
8
172
10
108
13
59
14
212
11
104
6
60
1
17
0
217
2
111
6
72
8
240
6
70
2
0
0
0
0
0
0
228
2
164
5
166
5
133
2
0
0
0
0
0
0
28
1
19
3
193
3
64
2
0
0
0
0
0
0
0
0
0
0
40
0
0
0
0
0
0
0
0
0
0
0
0
0
0
0
0
0
0
0
0
0
0
0
0
0
0
0
0
0
0
0
0
0
0
0
0
0
0
0
0
0
0
0
0
0
0
0
0
0
0
0
0
0
0
0
0
0
0
0
5
0
0
0
0
0
0
0
0
0
0
0
0
0
49
0
254
0
0
0
0
0
0
0
0
0
0
0
124
0
196
2
250
0
0
0
0
0
0
0
0
0
29
0
11
3
93
2
0
0
0
0
0
0
0
0
67
0
126
3
249
2
1
0
0
0
1
0
0
0
0
0
17
3
32
4
2
0
0
0
4
0
0
0
1
0
46
2
192
4
223
1
0
0
3
0
0
0
0
0
3
2
201
5
105
4
0
0
0
0
0
0
0
0
239
1
114
6
252
5
0
0
0
0
0
0
0
0
98
1
208
5
21
6
182
0
0
0
0
0
0
0
188
0
0
5
75
6
5
2
0
0
0
0
0
0
0
0
175
3
189
5
154
2
0
0
0
0
0
0
0
0
47
3
14
6
246
3
0
0
0
0
0
0
0
0
164
2
51
6
80
5
0
0
0
0
0
0
0
0
186
2
133
8
196
9
17
4
0
0
0
0
0
0
32
1
216
6
251
9
156
5
0
0
0
0
0
0
0
0
127
5
120
10
212
7
0
0
0
0
0
0
0
0
177
3
68
11
43
11
81
0
0
0
0
0
0
0
161
2
183
11
104
13
32
3
0
0
0
0
0
0
175
1
148
10
136
13
107
5
0
0
0
0
0
0
231
0
40
9
179
13
29
8
0
0
0
0
0
0
92
0
3
7
120
12
124
9
0
0
0
0
0
0
0
0
56
4
8
10
235
8
0
0
0
0
0
0
0
0
112
3
127
9
93
9
238
1
0
0
0
0
0
0
65
3
76
8
168
8
51
4
0
0
0
0
0
0
164
1
236
7
75
11
56
7
0
0
0
0
0
0
84
0
210
5
44
10
174
7
0
0
0
0
0
0
22
0
197
4
84
9
29
8
225
0
0
0
0
0
0
0
6
3
195
7
141
7
106
1
0
0
0
0
0
0
47
2
221
6
104
7
82
2
0
0
0
0
0
0
200
1
96
5
18
6
252
2
0
0
0
0
0
0
92
1
241
3
113
4
97
1
0
0
0
0
185
0
190
3
84
5
88
4
49
1
0
0
0
0
0
0
4
1
228
3
146
4
85
1
0
0
0
0
0
0
44
2
231
3
22
3
0
0
0
0
0
0
0
0
125
2
164
4
224
4
99
2
0
0
0
0
0
0
20
3
230
6
183
9
180
9
180
6
163
3
124
3
76
6
96
10
8
13
166
13
71
11
220
7
14
6
23
7
180
9
148
12
27
13
140
10
88
6
14
3
247
2
124
5
18
9
124
10
212
7
254
3
5
1
88
1
77
4
252
7
132
10
160
9
102
5
64
1
178
1
140
4
78
7
83
9
49
7
82
2
0
0
0
0
143
2
211
5
204
6
29
4
0
0
0
0
0
0
0
0
193
2
196
4
30
3
0
0
0
0
0
0
0
0
212
2
134
5
184
4
0
0
0
0
0
0
0
0
251
2
72
6
111
6
113
2
0
0
0
0
0
0
52
3
28
7
65
8
0
5
0
0
0
0
0
0
140
3
246
7
212
9
188
8
185
5
177
2
50
2
125
4
172
7
184
9
171
9
61
7
80
4
35
3
254
3
48
6
127
8
248
9
100
9
235
6
97
4
0
4
127
5
212
7
188
9
187
9
61
7
253
3
143
2
133
3
204
5
219
7
95
8
124
6
103
3
168
1
36
2
18
4
77
6
136
7
90
6
124
3
125
1
231
1
206
3
94
6
67
8
20
8
232
5
170
3
144
3
164
5
245
8
124
12
46
14
239
12
80
10
100
9
215
10
37
14
254
15
255
15
252
15
88
15
187
13
56
14
254
15
255
15
253
15
254
15
219
14
61
12
206
11
67
13
173
15
254
15
255
15
76
13
228
9
171
8
156
9
204
11
23
14
56
14
142
11
22
8
124
6
68
7
160
9
28
12
12
13
143
11
213
8
108
8
111
10
0
13
200
14
3
15
180
13
168
12
43
13
205
14
254
15
255
15
252
15
36
15
179
12
156
11
78
12
119
13
8
14
64
13
163
10
116
7
72
5
93
4
232
4
113
6
15
8
253
7
152
5
7
2
2
0
93
0
23
2
48
4
84
4
49
2
0
0
0
0
0
0
220
0
172
2
139
3
68
2
0
0
0
0
0
0
0
0
158
1
196
2
216
1
0
0
0
0
0
0
0
0
0
0
152
0
50
0
0
0
0
0
0
0
0
0
245
0
190
2
1
3
145
1
70
0
167
0
12
2
195
3
240
4
152
4
32
3
230
1
24
2
96
3
181
4
68
5
155
4
238
2
104
1
30
1
224
1
4
3
192
3
113
3
216
1
2
0
0
0
0
0
50
1
70
2
12
2
116
0
0
0
0
0
0
0
0
0
88
0
68
0
0
0
0
0
0
0
0
0
0
0
0
0
0
0
0
0
1
0
0
0
0
0
0
0
0
0
0
0
0
0
0
0
0
0
0
0
0
0
0
0
0
0
0
0
0
0
0
0
0
0
0
0
0
0
0
0
0
0
0
0
0
0
0
0
0
0
0
0
0
0
4
0
0
0
0
0
0
0
0
0
0
0
222
0
4
2
205
1
118
0
0
0
0
0
109
1
104
3
184
4
219
4
136
3
8
2
192
1
230
2
168
4
246
5
0
6
152
4
179
2
240
1
172
2
21
4
68
5
117
5
73
4
88
2
64
1
199
1
42
3
116
4
27
5
50
4
154
2
171
1
109
2
29
4
207
5
159
6
28
6
194
4
228
3
132
4
35
6
188
7
136
8
1
8
12
6
22
4
164
3
128
4
196
5
70
6
124
5
148
3
162
1
34
1
104
2
78
4
232
5
45
6
137
4
39
2
12
1
77
1
228
1
28
2
70
1
0
0
0
0
0
0
0
0
0
0
0
0
0
0
0
0
0
0
0
0
0
0
0
0
0
0
0
0
0
0
0
0
0
0
0
0
0
0
0
0
0
0
0
0
0
0
0
0
0
0
0
0
40
0
167
1
8
2
45
1
63
0
152
0
189
2
204
5
212
8
3
11
88
11
76
10
119
9
92
10
204
12
163
15
252
15
254
15
160
15
4
14
252
13
199
15
252
15
254
15
255
15
252
15
46
15
191
14
252
15
254
15
255
15
252
15
254
15
43
14
56
13
236
14
255
15
252
15
254
15
255
15
252
15
180
15
255
15
252
15
254
15
255
15
164
13
68
9
125
6
132
6
32
8
141
9
28
9
30
6
19
2
0
0
0
0
163
0
13
2
76
2
82
0
0
0
0
0
0
0
0
0
0
0
0
0
0
0
0
0
0
0
0
0
0
0
0
0
0
0
0
0
0
0
0
0
0
0
0
0
56
2
88
4
251
3
105
1
0
0
0
0
0
0
1
2
71
4
140
4
53
2
0
0
0
0
0
0
0
0
111
1
184
1
14
0
0
0
0
0
0
0
0
0
148
1
203
2
0
2
0
0
0
0
0
0
80
0
223
2
0
5
60
5
86
3
254
0
80
0
53
2
92
5
236
7
155
8
232
6
102
4
106
3
252
4
248
7
183
10
188
11
76
10
135
7
239
5
228
6
135
9
244
11
128
12
243
9
204
5
70
3
189
3
77
6
31
9
11
10
220
7
96
3
0
0
0
0
189
1
199
4
81
6
76
5
26
2
0
0
0
0
229
1
52
5
20
7
122
6
134
3
94
0
0
0
34
1
12
4
96
6
124
6
204
3
56
0
0
0
45
0
238
2
180
5
132
6
198
4
180
1
0
0
18
1
44
4
108
7
78
9
132
8
188
5
102
3
151
3
24
6
23
9
240
10
110
10
167
7
166
4
1
4
35
6
37
9
31
11
219
10
20
8
208
4
207
3
148
5
148
8
219
10
228
10
64
8
207
4
112
3
76
5
199
8
156
11
56
12
3
10
172
6
20
5
123
6
152
9
142
12
135
13
140
11
208
7
67
5
196
5
120
8
71
11
108
12
222
10
71
7
8
4
176
3
243
5
212
8
136
10
155
9
44
6
185
2
39
2
120
4
152
7
179
9
92
9
44
6
51
2
145
0
73
2
167
5
45
8
88
8
183
5
4
2
72
0
151
1
136
4
52
7
39
8
136
6
52
3
150
0
206
0
72
3
14
6
72
7
232
5
123
2
0
0
0
0
96
1
220
3
124
5
197
4
142
1
0
0
0
0
164
0
100
3
139
5
125
5
241
2
0
0
0
0
4
1
41
4
176
6
20
7
192
4
92
1
0
0
244
0
252
3
192
6
151
7
164
5
32
2
0
0
130
0
64
3
5
6
12
7
118
5
242
1
0
0
0
0
70
2
116
5
72
7
129
6
88
3
95
0
64
0
25
3
128
6
119
8
228
7
57
4
0
0
0
0
52
0
245
2
68
5
96
5
211
2
0
0
0
0
0
0
216
1
94
4
67
5
144
3
33
0
0
0
0
0
56
1
222
3
22
5
185
3
102
0
0
0
0
0
228
0
140
3
47
5
125
4
184
1
0
0
0
0
71
1
89
4
138
6
76
6
133
3
73
0
0
0
34
1
79
4
212
6
20
7
175
4
50
1
0
0
22
1
76
4
24
7
251
7
25
6
140
2
86
0
44
1
20
4
42
7
144
8
100
7
237
3
217
0
152
0
236
2
225
5
156
7
19
7
60
4
112
1
238
0
247
2
232
5
255
7
248
7
149
5
123
2
56
1
188
2
151
5
244
7
88
8
53
6
236
2
64
1
98
2
24
5
174
7
131
8
218
6
185
3
112
1
238
1
127
4
1
7
36
8
212
6
28
3
0
0
0
0
50
2
110
5
49
7
71
6
238
2
0
0
0
0
198
0
158
3
208
5
229
5
80
3
2
0
0
0
0
0
36
2
193
4
179
5
45
4
0
1
0
0
0
0
92
1
45
4
178
5
140
4
28
1
0
0
0
0
102
1
94
4
44
6
56
5
195
1
0
0
0
0
225
0
226
3
37
6
28
6
110
3
9
0
0
0
88
0
57
3
225
5
158
6
170
4
79
1
0
0
0
0
58
2
228
4
40
6
68
5
126
2
0
0
0
0
224
0
111
3
52
5
4
5
192
2
0
0
0
0
32
0
155
2
14
5
4
6
145
4
206
1
0
0
21
0
124
2
128
5
79
7
134
6
136
3
217
0
172
0
194
2
126
5
66
7
204
6
37
4
54
1
94
0
21
2
242
4
5
7
28
7
186
4
115
1
73
0
229
1
219
4
98
7
10
8
237
5
141
2
148
0
118
1
20
4
194
6
230
7
110
6
30
3
174
0
21
1
162
3
160
6
104
8
164
7
150
4
150
1
56
1
102
3
102
6
114
8
31
8
44
5
188
1
175
0
107
2
40
5
53
7
38
7
150
4
40
1
0
0
36
1
230
3
58
6
6
7
111
5
192
2
118
1
142
2
17
5
172
7
245
8
218
7
80
5
143
3
72
4
166
6
239
8
28
10
254
8
69
6
25
4
80
4
99
6
216
8
4
10
251
8
33
6
88
3
194
2
133
4
7
7
158
8
6
8
74
5
111
2
210
1
154
3
79
6
72
8
116
8
127
6
229
3
226
2
70
4
210
6
252
8
125
9
192
7
22
5
188
3
199
4
70
7
154
9
52
10
110
8
72
5
9
3
46
3
100
5
4
8
26
9
136
7
3
4
254
0
112
0
39
2
134
4
241
5
175
5
4
3
0
0
0
0
0
0
160
0
215
2
184
3
160
1
0
0
0
0
0
0
0
0
128
0
106
1
1
0
0
0
0
0
1
0
0
0
0
0
195
0
40
0
0
0
0
0
0
0
0
0
1
0
178
1
64
2
59
0
0
0
0
0
0
0
174
1
238
4
153
6
5
5
156
1
1
0
46
0
189
2
154
5
246
6
94
5
211
1
0
0
36
0
202
2
218
5
160
7
148
6
38
3
0
0
1
0
190
1
208
4
250
6
170
6
175
3
35
0
0
0
150
0
57
3
174
5
22
6
176
3
0
0
0
0
0
0
12
1
198
3
116
5
90
4
6
1
0
0
0
0
28
1
174
3
94
5
108
4
51
1
0
0
0
0
0
0
248
1
121
3
214
2
0
0
0
0
0
0
0
0
42
1
87
3
250
3
26
2
1
0
0
0
0
0
59
1
206
3
73
5
18
4
36
1
0
0
0
0
4
2
220
4
196
6
6
6
98
3
63
1
148
1
207
3
108
6
0
8
24
7
101
4
52
2
136
2
205
4
228
6
117
7
201
5
4
3
19
1
125
1
166
3
34
6
20
7
156
5
105
2
81
0
28
1
75
4
140
7
23
9
232
7
150
4
206
1
200
1
134
4
200
7
196
9
50
9
182
5
213
1
181
0
200
2
44
6
164
8
138
8
65
5
254
0
0
0
8
1
124
4
110
7
211
7
223
4
174
0
0
0
117
0
200
3
238
6
218
7
238
5
72
2
0
0
14
0
230
2
31
6
200
7
138
6
215
2
0
0
0
0
192
1
44
5
124
7
52
7
36
4
160
0
0
0
130
1
250
4
220
7
198
8
202
6
45
3
246
0
228
1
7
5
122
8
115
10
134
9
40
6
19
3
251
2
160
5
43
9
180
11
150
11
149
8
244
4
212
3
248
5
127
9
106
12
19
13
124
10
110
6
90
4
160
5
194
8
223
11
60
13
74
11
14
7
210
3
14
4
213
6
55
10
54
12
246
10
4
7
72
3
210
2
40
5
160
8
54
11
12
11
182
7
160
3
51
2
236
3
65
7
30
10
180
10
239
7
141
3
72
1
120
2
142
5
162
8
3
10
254
7
152
3
148
0
251
0
196
3
62
7
102
9
60
8
68
4
241
0
192
0
254
2
120
6
52
9
228
8
108
5
144
1
150
0
157
2
48
6
47
9
182
9
180
6
106
2
137
0
22
2
120
5
182
8
208
9
102
7
238
2
62
0
20
1
45
4
186
7
181
9
34
8
194
3
74
0
99
0
45
3
202
6
68
9
108
8
99
4
97
0
0
0
248
1
166
5
184
8
191
8
26
5
134
0
0
0
187
0
80
4
217
7
212
8
0
6
74
1
0
0
49
0
86
3
228
6
170
8
205
6
91
2
0
0
0
0
218
2
134
6
222
8
162
7
84
3
0
0
0
0
92
2
242
5
189
8
42
8
56
4
73
0
0
0
192
1
97
5
102
8
121
8
58
5
14
1
0
0
224
0
108
4
224
7
208
8
248
5
136
1
0
0
128
0
184
3
32
7
208
8
224
6
95
2
0
0
0
0
192
2
82
6
138
8
24
7
184
2
0
0
0
0
0
2
170
5
64
8
194
7
60
4
198
0
108
0
182
2
48
6
76
9
219
9
14
7
4
3
106
1
4
3
22
6
211
8
64
9
68
6
190
1
0
0
118
0
136
3
242
6
132
8
128
6
247
1
0
0
0
0
210
2
70
6
106
8
31
7
220
2
0
0
0
0
12
2
148
5
18
8
80
7
144
3
0
0
0
0
152
1
5
5
214
7
202
7
119
4
93
0
0
0
225
0
44
4
54
7
228
7
70
5
94
1
0
0
206
0
234
3
199
6
212
7
222
5
58
2
0
0
184
0
132
3
128
6
24
8
172
6
16
3
114
0
221
0
90
3
111
6
118
8
178
7
30
4
217
0
120
0
150
2
215
5
82
8
49
8
25
5
102
1
82
0
20
2
58
5
251
7
134
8
232
5
14
2
109
0
204
1
206
4
159
7
182
8
159
6
194
2
160
0
156
1
132
4
138
7
18
9
142
7
208
3
50
1
172
1
42
4
21
7
232
8
250
7
164
4
185
1
196
1
242
3
198
6
234
8
134
8
126
5
78
2
166
1
96
3
6
6
24
8
20
8
160
5
170
2
193
1
34
3
92
5
84
7
182
7
196
5
191
2
54
1
32
2
95
4
124
6
58
7
213
5
236
2
47
1
217
1
200
3
226
5
210
6
170
5
68
3
174
1
24
2
174
3
78
5
48
6
128
5
161
3
68
2
128
2
241
3
156
5
168
6
98
6
228
4
122
3
109
3
152
4
19
6
31
7
42
7
227
5
58
4
226
3
250
4
120
6
180
7
3
8
220
6
44
5
164
4
177
5
96
7
212
8
96
9
76
8
106
6
68
5
218
5
60
7
174
8
118
9
200
8
248
6
154
5
200
5
32
7
170
8
157
9
78
9
150
7
207
5
150
5
208
6
107
8
100
9
52
9
178
7
175
5
22
5
31
6
164
7
218
8
59
9
248
7
242
5
249
4
213
5
122
7
252
8
170
9
147
8
106
6
252
4
104
5
218
6
106
8
72
9
134
8
77
6
132
4
122
4
207
5
106
7
102
8
40
8
144
6
197
4
118
4
170
5
57
7
74
8
44
8
124
6
102
4
190
3
156
4
64
6
150
7
6
8
192
6
204
4
32
4
62
5
28
7
226
8
244
9
66
9
102
7
40
6
182
6
58
8
210
9
184
10
47
10
126
8
44
7
122
7
246
8
142
10
162
11
124
11
198
9
225
7
118
7
114
8
195
9
122
10
58
10
165
8
176
6
228
5
121
6
114
7
42
8
37
8
234
6
46
5
84
4
198
4
212
5
207
6
48
7
90
6
232
4
240
3
44
4
0
5
206
5
12
6
36
5
93
3
242
1
198
1
123
2
92
3
204
3
57
3
186
1
72
0
0
0
160
0
148
1
53
2
22
2
242
0
0
0
0
0
0
0
210
0
134
1
162
1
173
0
0
0
0
0
0
0
120
0
82
1
149
1
210
0
0
0
0
0
0
0
0
0
217
0
72
1
204
0
1
0
0
0
0
0
173
0
193
1
92
2
13
2
245
0
72
0
173
0
180
1
162
2
225
2
70
2
192
0
0
0
0
0
0
0
111
0
22
1
32
1
52
0
0
0
0
0
1
0
0
0
200
0
17
1
100
0
0
0
0
0
0
0
42
0
13
1
124
1
246
0
0
0
0
0
0
0
0
0
214
0
100
1
21
1
0
0
0
0
1
0
0
0
222
0
134
1
120
1
142
0
0
0
0
0
0
0
14
1
220
1
12
2
53
1
42
0
0
0
122
0
128
1
100
2
206
2
41
2
2
1
97
0
204
0
194
1
189
2
47
3
175
2
135
1
188
0
10
1
12
2
34
3
202
3
153
3
162
2
174
1
171
1
128
2
126
3
37
4
16
4
24
3
236
1
178
1
79
2
77
3
24
4
76
4
121
3
62
2
200
1
90
2
78
3
22
4
100
4
172
3
104
2
170
1
10
2
248
2
223
3
72
4
184
3
126
2
152
1
188
1
144
2
116
3
254
3
184
3
164
2
138
1
109
1
68
2
52
3
196
3
164
3
178
2
132
1
57
1
231
1
210
2
123
3
156
3
172
2
112
1
246
0
149
1
163
2
151
3
230
3
63
3
20
2
93
1
206
1
206
2
204
3
74
4
221
3
195
2
220
1
6
2
248
2
12
4
171
4
126
4
123
3
92
2
62
2
19
3
40
4
225
4
234
4
250
3
194
2
111
2
25
3
8
4
202
4
235
4
26
4
219
2
51
2
176
2
171
3
150
4
8
5
106
4
50
3
119
2
235
2
254
3
22
5
190
5
94
5
54
4
75
3
130
3
150
4
200
5
82
6
24
6
251
4
187
3
133
3
83
4
78
5
231
5
202
5
179
4
74
3
206
2
106
3
78
4
6
5
34
5
38
4
194
2
37
2
177
2
170
3
147
4
15
5
107
4
21
3
52
2
127
2
126
3
134
4
19
5
179
4
144
3
163
2
182
2
162
3
195
4
118
5
88
5
83
4
27
3
230
2
179
3
180
4
116
5
130
5
127
4
36
3
158
2
56
3
46
4
16
5
83
5
120
4
23
3
70
2
202
2
203
3
171
4
248
4
72
4
246
2
22
2
79
2
35
3
18
4
162
4
58
4
239
2
218
1
224
1
184
2
186
3
96
4
76
4
82
3
251
1
154
1
91
2
120
3
68
4
111
4
126
3
21
2
131
1
28
2
29
3
7
4
124
4
184
3
59
2
80
1
162
1
171
2
180
3
83
4
206
3
109
2
90
1
123
1
126
2
167
3
120
4
51
4
224
2
147
1
97
1
68
2
122
3
111
4
113
4
75
3
195
1
62
1
250
1
42
3
45
4
134
4
163
3
34
2
107
1
221
1
214
2
250
3
126
4
170
3
15
2
251
0
42
1
43
2
71
3
230
3
110
3
11
2
250
0
63
1
144
2
37
4
78
5
67
5
11
4
171
2
160
2
254
3
174
5
194
6
228
6
123
5
99
3
72
2
170
2
196
3
228
4
82
5
105
4
209
2
0
2
117
2
145
3
191
4
91
5
146
4
230
2
197
1
250
1
6
3
63
4
6
5
163
4
61
3
255
1
18
2
26
3
110
4
112
5
89
5
26
4
178
2
104
2
64
3
134
4
162
5
208
5
182
4
25
3
116
2
40
3
100
4
125
5
230
5
254
4
94
3
123
2
242
2
252
3
19
5
175
5
6
5
115
3
80
2
125
2
142
3
198
4
124
5
31
5
170
3
90
2
79
2
76
3
156
4
150
5
146
5
87
4
242
2
150
2
108
3
160
4
162
5
211
5
202
4
50
3
146
2
66
3
105
4
124
5
242
5
28
5
149
3
195
2
72
3
110
4
134
5
11
6
88
5
254
3
43
3
136
3
154
4
179
5
59
6
199
5
126
4
110
3
131
3
120
4
133
5
34
6
211
5
170
4
119
3
70
3
6
4
254
4
164
5
133
5
106
4
14
3
155
2
58
3
43
4
223
4
246
4
3
4
176
2
42
2
174
2
151
3
110
4
183
4
252
3
183
2
0
2
96
2
78
3
48
4
164
4
70
4
28
3
35
2
94
2
62
3
58
4
207
4
143
4
130
3
131
2
121
2
82
3
91
4
8
5
251
4
19
4
236
2
174
2
115
3
118
4
55
5
98
5
144
4
87
3
238
2
129
3
112
4
67
5
155
5
238
4
187
3
22
3
118
3
98
4
66
5
166
5
32
5
250
3
30
3
80
3
60
4
38
5
146
5
62
5
46
4
38
3
12
3
198
3
182
4
82
5
57
5
54
4
246
2
168
2
78
3
74
4
253
4
10
5
32
4
230
2
107
2
246
2
220
3
171
4
4
5
84
4
30
3
98
2
184
2
159
3
122
4
236
4
118
4
65
3
82
2
103
2
88
3
89
4
234
4
148
4
122
3
115
2
94
2
36
3
38
4
209
4
201
4
223
3
182
2
110
2
38
3
25
4
220
4
19
5
66
4
14
3
146
2
24
3
0
4
210
4
40
5
134
4
87
3
158
2
246
2
215
3
185
4
41
5
186
4
146
3
154
2
178
2
132
3
109
4
3
5
198
4
190
3
162
2
127
2
74
3
72
4
0
5
247
4
240
3
160
2
62
2
227
2
216
3
158
4
211
4
11
4
223
2
96
2
221
2
198
3
167
4
11
5
99
4
50
3
124
2
216
2
200
3
191
4
70
5
230
4
197
3
216
2
243
2
210
3
208
4
112
5
58
5
38
4
3
3
218
2
160
3
146
4
43
5
34
5
43
4
236
2
144
2
64
3
52
4
252
4
54
5
106
4
40
3
151
2
19
3
246
3
218
4
72
5
170
4
106
3
156
2
230
2
203
3
183
4
42
5
195
4
155
3
178
2
226
2
242
3
56
5
39
6
70
6
103
5
90
4
59
4
64
5
195
6
226
7
3
8
10
7
122
5
120
4
126
4
0
5
140
5
152
5
200
4
122
3
214
2
62
3
13
4
211
4
40
5
135
4
75
3
120
2
176
2
134
3
101
4
215
4
110
4
79
3
92
2
112
2
96
3
90
4
231
4
174
4
166
3
149
2
112
2
54
3
47
4
222
4
232
4
253
3
203
2
106
2
26
3
19
4
220
4
27
5
94
4
40
3
159
2
24
3
2
4
230
4
76
5
192
4
151
3
206
2
10
3
235
3
211
4
87
5
2
5
214
3
201
2
207
2
163
3
164
4
78
5
51
5
49
4
3
3
204
2
164
3
176
4
98
5
124
5
159
4
91
3
229
2
130
3
127
4
95
5
186
5
254
4
175
3
251
2
101
3
88
4
80
5
203
5
73
5
10
4
46
3
94
3
78
4
70
5
211
5
139
5
106
4
78
3
64
3
15
4
11
5
187
5
170
5
163
4
83
3
248
2
167
3
170
4
114
5
144
5
167
4
75
3
184
2
51
3
45
4
0
5
102
5
170
4
73
3
114
2
198
2
174
3
171
4
43
5
154
4
82
3
84
2
122
2
119
3
137
4
42
5
227
4
178
3
140
2
107
2
67
3
85
4
34
5
27
5
18
4
210
2
110
2
29
3
42
4
7
5
56
5
88
4
248
2
74
2
206
2
191
3
171
4
30
5
115
4
13
3
48
2
122
2
107
3
114
4
252
4
130
4
74
3
37
2
62
2
43
3
46
4
206
4
170
4
136
3
74
2
31
2
237
2
14
4
230
4
243
4
238
3
144
2
26
2
212
2
247
3
243
4
61
5
94
4
244
2
76
2
219
2
250
3
250
4
155
5
246
4
151
3
175
2
243
2
229
3
250
4
160
5
59
5
242
3
208
2
212
2
202
3
231
4
185
5
162
5
111
4
16
3
210
2
160
3
184
4
152
5
178
5
163
4
55
3
170
2
80
3
107
4
94
5
174
5
210
4
86
3
153
2
26
3
36
4
48
5
171
5
250
4
136
3
139
2
189
2
173
3
203
4
118
5
17
5
192
3
131
2
132
2
114
3
139
4
68
5
58
5
27
4
198
2
114
2
71
3
122
4
107
5
122
5
120
4
242
2
84
2
252
2
55
4
62
5
146
5
195
4
60
3
112
2
246
2
10
4
37
5
195
5
35
5
165
3
144
2
179
2
178
3
223
4
152
5
64
5
233
3
164
2
140
2
114
3
155
4
118
5
119
5
72
4
222
2
131
2
78
3
120
4
106
5
144
5
132
4
255
2
96
2
252
2
30
4
41
5
142
5
178
4
40
3
70
2
171
2
171
3
193
4
98
5
208
4
91
3
67
2
104
2
98
3
138
4
78
5
2
5
178
3
104
2
85
2
70
3
106
4
56
5
51
5
8
4
157
2
55
2
242
2
32
4
48
5
150
5
232
4
206
3
126
3
71
4
119
5
134
6
31
7
234
6
242
5
71
5
171
5
106
6
236
6
232
6
235
5
77
4
43
3
59
3
32
4
58
5
219
5
128
5
54
4
237
2
188
2
146
3
206
4
159
5
150
5
112
4
26
3
210
2
155
3
185
4
170
5
222
5
234
4
112
3
204
2
108
3
139
4
147
5
11
6
70
5
206
3
226
2
67
3
73
4
106
5
19
6
142
5
26
4
255
2
34
3
19
4
63
5
2
6
193
5
126
4
53
3
26
3
250
3
32
5
228
5
250
5
249
4
126
3
243
2
172
3
205
4
202
5
17
6
42
5
178
3
1
3
150
3
187
4
211
5
83
6
162
5
37
4
52
3
143
3
152
4
185
5
110
6
253
5
159
4
127
3
144
3
127
4
174
5
126
6
76
6
18
5
197
3
150
3
119
4
166
5
138
6
162
6
148
5
33
4
174
3
107
4
145
5
143
6
211
6
233
5
107
4
172
3
46
4
62
5
67
6
184
6
248
5
111
4
103
3
171
3
152
4
164
5
59
6
170
5
51
4
254
2
248
2
216
3
8
5
187
5
112
5
27
4
194
2
128
2
75
3
102
4
72
5
91
5
66
4
198
2
75
2
254
2
31
4
35
5
115
5
134
4
254
2
51
2
176
2
195
3
216
4
95
5
170
4
37
3
26
2
87
2
91
3
133
4
62
5
206
4
98
3
62
2
76
2
76
3
118
4
71
5
27
5
223
3
118
2
38
2
250
2
43
4
32
5
66
5
49
4
179
2
41
2
232
2
44
4
76
5
173
5
191
4
49
3
79
2
207
2
248
3
38
5
189
5
29
5
164
3
147
2
193
2
206
3
8
5
211
5
124
5
6
4
185
2
176
2
166
3
214
4
174
5
148
5
84
4
233
2
141
2
98
3
148
4
132
5
138
5
98
4
217
2
58
2
214
2
243
3
8
5
111
5
141
4
240
2
4
2
109
2
136
3
181
4
87
5
196
4
56
3
17
2
60
2
69
3
121
4
56
5
224
4
121
3
40
2
6
2
243
2
60
4
42
5
22
5
218
3
92
2
253
1
210
2
16
4
26
5
94
5
86
4
192
2
22
2
192
2
247
3
28
5
152
5
208
4
60
3
66
2
172
2
200
3
255
4
179
5
12
5
133
3
96
2
138
2
143
3
209
4
156
5
78
5
236
3
146
2
108
2
86
3
146
4
126
5
118
5
68
4
198
2
87
2
33
3
83
4
87
5
148
5
141
4
244
2
66
2
232
2
21
4
54
5
172
5
215
4
64
3
84
2
191
2
218
3
15
5
185
5
32
5
152
3
124
2
164
2
152
3
188
4
134
5
60
5
213
3
116
2
74
2
51
3
114
4
94
5
90
5
34
4
169
2
53
2
240
2
38
4
41
5
106
5
100
4
203
2
26
2
182
2
230
3
16
5
140
5
180
4
34
3
49
2
167
2
246
3
116
5
127
6
70
6
3
5
247
3
30
4
34
5
174
6
4
8
49
8
228
6
104
5
195
4
2
5
174
5
58
6
22
6
225
4
86
3
217
2
148
3
204
4
208
5
16
6
12
5
105
3
158
2
36
3
87
4
128
5
244
5
39
5
148
3
163
2
1
3
20
4
73
5
4
6
124
5
6
4
225
2
234
2
230
3
39
5
248
5
184
5
92
4
252
2
217
2
192
3
236
4
190
5
192
5
156
4
26
3
167
2
114
3
162
4
159
5
228
5
236
4
89
3
152
2
44
3
83
4
120
5
2
6
64
5
174
3
180
2
13
3
39
4
96
5
28
6
160
5
46
4
4
3
30
3
35
4
106
5
82
6
49
6
231
4
136
3
78
3
52
4
124
5
114
6
140
6
130
5
6
4
121
3
53
4
110
5
116
6
198
6
219
5
74
4
140
3
24
4
58
5
88
6
216
6
16
6
158
4
168
3
249
3
6
5
42
6
217
6
88
6
239
4
196
3
214
3
206
4
244
5
174
6
107
6
19
5
166
3
96
3
44
4
70
5
12
6
0
6
204
4
75
3
192
2
86
3
91
4
76
5
136
5
143
4
239
2
36
2
175
2
202
3
218
4
86
5
150
4
16
3
20
2
95
2
100
3
142
4
59
5
186
4
84
3
43
2
54
2
40
3
85
4
22
5
230
4
167
3
92
2
36
2
5
3
52
4
30
5
47
5
24
4
169
2
48
2
232
2
15
4
12
5
88
5
110
4
244
2
68
2
200
2
209
3
219
4
88
5
161
4
40
3
58
2
135
2
138
3
175
4
89
5
226
4
136
3
82
2
90
2
76
3
127
4
62
5
15
5
208
3
124
2
58
2
17
3
62
4
30
5
39
5
22
4
154
2
27
2
208
2
242
3
242
4
70
5
97
4
221
2
26
2
161
2
190
3
216
4
99
5
181
4
46
3
36
2
113
2
124
3
171
4
95
5
236
4
136
3
83
2
82
2
68
3
121
4
74
5
49
5
241
3
140
2
68
2
23
3
68
4
46
5
84
5
66
4
200
2
34
2
202
2
246
3
5
5
92
5
120
4
235
2
20
2
148
2
170
3
204
4
92
5
179
4
60
3
40
2
95
2
90
3
143
4
77
5
240
4
136
3
66
2
48
2
36
3
95
4
68
5
56
5
247
3
120
2
30
2
244
2
44
4
42
5
92
5
78
4
194
2
38
2
212
2
8
4
33
5
138
5
169
4
21
3
50
2
175
2
207
3
252
4
156
5
0
5
124
3
94
2
143
2
154
3
220
4
167
5
84
5
234
3
147
2
108
2
94
3
164
4
134
5
116
5
55
4
166
2
46
2
250
2
56
4
72
5
129
5
121
4
226
2
47
2
196
2
242
3
29
5
156
5
206
4
48
3
44
2
130
2
165
3
236
4
164
5
20
5
130
3
64
2
83
2
94
3
188
4
189
5
182
5
160
4
145
3
172
3
188
4
20
6
22
7
95
7
175
6
126
5
10
5
198
5
162
6
24
7
202
6
100
5
150
3
193
2
80
3
130
4
169
5
18
6
66
5
141
3
116
2
206
2
234
3
34
5
204
5
65
5
178
3
112
2
131
2
124
3
210
4
166
5
92
5
251
3
150
2
92
2
63
3
142
4
134
5
138
5
85
4
197
2
68
2
17
3
82
4
105
5
186
5
184
4
32
3
93
2
252
2
50
4
85
5
224
5
26
5
141
3
148
2
230
2
253
3
48
5
226
5
96
5
224
3
172
2
189
2
190
3
6
5
222
5
156
5
68
4
241
2
182
2
162
3
237
4
228
5
239
5
210
4
78
3
214
2
174
3
248
4
0
6
64
6
72
5
190
3
7
3
154
3
193
4
232
5
106
6
166
5
25
4
34
3
129
3
157
4
209
5
134
6
6
6
146
4
104
3
127
3
134
4
201
5
150
6
90
6
6
5
167
3
118
3
84
4
142
5
112
6
111
6
66
5
172
3
30
3
204
3
246
4
238
5
38
6
24
5
124
3
173
2
40
3
51
4
70
5
186
5
230
4
64
3
56
2
138
2
148
3
202
4
104
5
230
4
112
3
66
2
86
2
80
3
137
4
86
5
24
5
204
3
109
2
48
2
18
3
77
4
54
5
74
5
49
4
172
2
46
2
227
2
20
4
25
5
105
5
110
4
220
2
30
2
170
2
204
3
231
4
108
5
172
4
31
3
29
2
108
2
119
3
168
4
88
5
217
4
114
3
66
2
68
2
48
3
117
4
76
5
28
5
216
3
119
2
54
2
22
3
87
4
74
5
96
5
65
4
190
2
52
2
241
2
38
4
47
5
132
5
146
4
252
2
48
2
184
2
216
3
249
4
130
5
200
4
59
3
56
2
130
2
141
3
172
4
108
5
247
4
130
3
78
2
79
2
66
3
128
4
81
5
38
5
222
3
121
2
40
2
255
2
53
4
44
5
78
5
57
4
178
2
32
2
207
2
252
3
14
5
106
5
128
4
248
2
38
2
156
2
178
3
218
4
112
5
196
4
61
3
54
2
122
2
132
3
182
4
111
5
253
4
152
3
92
2
87
2
72
3
130
4
88
5
48
5
244
3
141
2
66
2
24
3
82
4
76
5
108
5
87
4
204
2
38
2
227
2
13
4
29
5
126
5
154
4
10
3
58
2
180
2
204
3
246
4
140
5
222
4
92
3
72
2
132
2
136
3
172
4
114
5
11
5
158
3
98
2
87
2
68
3
128
4
79
5
52
5
1
4
159
2
88
2
38
3
76
4
66
5
101
5
105
4
221
2
66
2
245
2
32
4
44
5
148
5
176
4
36
3
71
2
180
2
202
3
234
4
130
5
226
4
101
3
80
2
134
2
145
3
192
4
126
5
25
5
180
3
111
2
87
2
64
3
120
4
86
5
58
5
2
4
127
2
46
2
254
2
44
4
32
5
72
5
65
4
196
2
88
2
70
3
190
4
33
6
202
6
16
6
133
4
183
3
135
4
42
6
166
7
72
8
159
7
158
5
206
3
108
3
37
4
56
5
222
5
132
5
24
4
194
2
153
2
118
3
161
4
116
5
94
5
42
4
185
2
86
2
32
3
78
4
64
5
124
5
119
4
232
2
60
2
220
2
2
4
20
5
137
5
172
4
34
3
57
2
166
2
186
3
228
4
130
5
238
4
119
3
94
2
142
2
148
3
204
4
161
5
86
5
244
3
149
2
119
2
92
3
148
4
115
5
108
5
66
4
197
2
84
2
24
3
64
4
58
5
118
5
119
4
238
2
56
2
228
2
18
4
49
5
180
5
240
4
111
3
139
2
244
2
18
4
72
5
248
5
120
5
7
4
230
2
12
3
16
4
78
5
33
6
229
5
152
4
67
3
15
3
240
3
50
5
23
6
24
6
239
4
121
3
14
3
220
3
14
5
16
6
92
6
113
5
233
3
36
3
178
3
220
4
246
5
118
6
176
5
38
4
41
3
122
3
125
4
154
5
52
6
150
5
9
4
200
2
206
2
181
3
216
4
143
5
57
5
216
3
110
2
57
2
8
3
52
4
20
5
18
5
224
3
89
2
220
1
158
2
210
3
216
4
40
5
50
4
158
2
216
1
109
2
148
3
181
4
64
5
128
4
244
2
247
1
84
2
94
3
150
4
70
5
195
4
77
3
32
2
67
2
64
3
104
4
43
5
242
4
168
3
74
2
22
2
242
2
47
4
32
5
40
5
8
4
137
2
4
2
182
2
233
3
240
4
72
5
73
4
194
2
254
1
139
2
177
3
212
4
92
5
164
4
34
3
37
2
111
2
126
3
174
4
96
5
226
4
111
3
60
2
72
2
57
3
108
4
60
5
12
5
190
3
100
2
37
2
0
3
44
4
31
5
50
5
18
4
139
2
255
1
174
2
236
3
252
4
91
5
94
4
193
2
4
2
141
2
171
3
205
4
98
5
164
4
30
3
29
2
84
2
99
3
155
4
81
5
214
4
113
3
51
2
51
2
46
3
103
4
53
5
12
5
194
3
94
2
23
2
244
2
47
4
35
5
58
5
26
4
147
2
8
2
186
2
241
3
254
4
90
5
106
4
214
2
12
2
145
2
172
3
200
4
87
5
172
4
58
3
51
2
104
2
111
3
141
4
82
5
222
4
124
3
79
2
80
2
70
3
116
4
67
5
36
5
224
3
129
2
57
2
12
3
69
4
46
5
78
5
52
4
180
2
44
2
225
2
11
4
12
5
105
5
126
4
245
2
36
2
167
2
190
3
218
4
103
5
180
4
61
3
61
2
132
2
139
3
189
4
110
5
6
5
159
3
110
2
110
2
97
3
156
4
101
5
82
5
20
4
173
2
83
2
32
3
79
4
50
5
82
5
66
4
188
2
44
2
220
2
6
4
12
5
104
5
137
4
0
3
50
2
169
2
196
3
234
4
114
5
194
4
78
3
73
2
117
2
126
3
170
4
90
5
246
4
143
3
82
2
82
2
95
3
198
4
232
5
31
6
64
5
252
3
179
3
141
4
242
5
95
7
252
7
36
7
162
5
190
4
194
4
61
5
204
5
246
5
5
5
112
3
142
2
252
2
4
4
26
5
176
5
0
5
126
3
94
2
150
2
146
3
189
4
114
5
25
5
189
3
116
2
94
2
71
3
126
4
88
5
68
5
16
4
166
2
75
2
28
3
73
4
55
5
104
5
95
4
220
2
64
2
234
2
22
4
36
5
142
5
186
4
52
3
99
2
219
2
240
3
15
5
165
5
8
5
142
3
111
2
146
2
140
3
194
4
126
5
46
5
211
3
140
2
111
2
94
3
148
4
120
5
114
5
74
4
228
2
149
2
96
3
152
4
151
5
226
5
232
4
94
3
184
2
88
3
132
4
150
5
30
6
87
5
214
3
238
2
85
3
102
4
142
5
50
6
162
5
50
4
25
3
62
3
62
4
124
5
68
6
3
6
179
4
96
3
58
3
38
4
100
5
76
6
78
6
34
5
166
3
42
3
232
3
14
5
2
6
56
6
38
5
132
3
192
2
70
3
89
4
94
5
207
5
244
4
90
3
84
2
173
2
162
3
196
4
105
5
218
4
100
3
49
2
62
2
52
3
103
4
48
5
238
4
158
3
68
2
14
2
237
2
38
4
14
5
37
5
6
4
130
2
245
1
184
2
244
3
252
4
74
5
82
4
195
2
10
2
156
2
192
3
224
4
106
5
166
4
26
3
24
2
108
2
120
3
170
4
86
5
216
4
104
3
53
2
63
2
54
3
114
4
68
5
9
5
204
3
106
2
31
2
255
2
62
4
46
5
66
5
32
4
161
2
32
2
213
2
8
4
20
5
102
5
113
4
222
2
22
2
162
2
193
3
228
4
128
5
194
4
40
3
28
2
109
2
130
3
172
4
94
5
210
4
116
3
58
2
68
2
60
3
122
4
82
5
34
5
219
3
118
2
46
2
14
3
76
4
56
5
76
5
46
4
168
2
26
2
212
2
10
4
23
5
110
5
123
4
235
2
32
2
164
2
196
3
218
4
118
5
192
4
66
3
53
2
105
2
104
3
163
4
94
5
244
4
138
3
77
2
80
2
66
3
124
4
78
5
47
5
228
3
122
2
52
2
9
3
68
4
56
5
94
5
68
4
187
2
44
2
224
2
12
4
26
5
120
5
130
4
4
3
52
2
178
2
212
3
246
4
137
5
214
4
86
3
72
2
139
2
144
3
194
4
129
5
28
5
180
3
101
2
100
2
88
3
143
4
104
5
72
5
7
4
156
2
79
2
36
3
88
4
61
5
125
5
110
4
252
2
91
2
246
2
32
4
45
5
140
5
166
4
25
3
69
2
196
2
228
3
12
5
170
5
5
5
138
3
122
2
183
2
184
3
236
4
178
5
92
5
252
3
181
2
164
2
138
3
197
4
164
5
130
5
65
4
204
2
116
2
72
3
126
4
116
5
158
5
136
4
4
3
107
2
10
3
62
4
78
5
188
5
223
4
87
3
124
2
237
2
5
4
58
5
213
5
41
5
168
3
150
2
184
2
188
3
254
4
226
5
198
5
188
4
219
3
33
4
58
5
136
6
116
7
154
7
238
6
238
5
166
5
93
6
40
7
114
7
245
6
114
5
184
3
3
3
148
3
172
4
172
5
10
6
34
5
147
3
164
2
5
3
12
4
36
5
187
5
28
5
162
3
142
2
200
2
208
3
250
4
171
5
80
5
250
3
173
2
148
2
132
3
186
4
156
5
148
5
114
4
0
3
166
2
107
3
156
4
136
5
182
5
172
4
31
3
126
2
32
3
73
4
92
5
208
5
250
4
115
3
141
2
0
3
16
4
56
5
216
5
68
5
210
3
188
2
234
2
236
3
38
5
240
5
172
5
70
4
7
3
228
2
210
3
21
5
246
5
246
5
204
4
86
3
237
2
208
3
254
4
237
5
44
6
58
5
192
3
18
3
164
3
203
4
229
5
100
6
158
5
23
4
42
3
140
3
150
4
188
5
105
6
226
5
112
4
79
3
111
3
114
4
165
5
122
6
36
6
213
4
126
3
84
3
56
4
103
5
86
6
72
6
25
5
140
3
14
3
193
3
220
4
200
5
244
5
226
4
70
3
131
2
4
3
22
4
20
5
132
5
177
4
28
3
32
2
116
2
138
3
178
4
70
5
177
4
68
3
26
2
47
2
34
3
83
4
30
5
224
4
156
3
73
2
24
2
251
2
64
4
26
5
32
5
0
4
132
2
15
2
207
2
254
3
4
5
69
5
78
4
200
2
7
2
148
2
177
3
199
4
68
5
128
4
249
2
250
1
80
2
87
3
132
4
56
5
176
4
60
3
14
2
25
2
12
3
64
4
16
5
216
4
149
3
61
2
250
1
220
2
25
4
2
5
3
5
227
3
100
2
228
1
151
2
200
3
207
4
31
5
50
4
164
2
222
1
98
2
130
3
158
4
46
5
110
4
240
2
236
1
58
2
69
3
114
4
45
5
182
4
74
3
24
2
25
2
14
3
72
4
26
5
234
4
168
3
71
2
2
2
218
2
15
4
248
4
18
5
247
3
108
2
222
1
147
2
188
3
200
4
29
5
50
4
164
2
215
1
88
2
136
3
159
4
36
5
111
4
243
2
232
1
50
2
60
3
106
4
40
5
183
4
76
3
26
2
24
2
12
3
68
4
14
5
228
4
168
3
75
2
2
2
210
2
4
4
252
4
26
5
9
4
134
2
254
1
178
2
224
3
235
4
73
5
108
4
232
2
23
2
146
2
177
3
204
4
96
5
191
4
48
3
38
2
104
2
108
3
158
4
90
5
236
4
136
3
74
2
78
2
72
3
113
4
56
5
18
5
216
3
105
2
26
2
234
2
37
4
28
5
67
5
60
4
180
2
38
2
193
2
248
3
0
5
100
5
134
4
254
2
38
2
158
2
186
3
213
4
112
5
198
4
68
3
50
2
101
2
105
3
156
4
92
5
2
5
158
3
94
2
77
2
60
3
118
4
79
5
68
5
0
4
151
2
62
2
14
3
75
4
78
5
116
5
85
4
194
2
34
2
201
2
244
3
26
5
172
5
20
5
224
3
103
3
34
4
79
5
116
6
32
7
213
6
221
5
26
5
74
5
60
6
244
6
8
7
23
6
112
4
241
2
200
2
166
3
216
4
172
5
148
5
96
4
209
2
97
2
36
3
80
4
78
5
134
5
124
4
230
2
60
2
223
2
8
4
27
5
140
5
176
4
44
3
66
2
172
2
202
3
228
4
168
5
11
5
125
3
89
2
136
2
146
3
200
4
152
5
70
5
237
3
160
2
123
2
104
3
163
4
140
5
132
5
86
4
214
2
104
2
28
3
86
4
80
5
142
5
134
4
249
2
72
2
229
2
24
4
51
5
182
5
240
4
102
3
113
2
208
2
246
3
52
5
228
5
92
5
241
3
208
2
236
2
244
3
56
5
15
6
204
5
134
4
56
3
9
3
232
3
20
5
18
6
22
6
244
4
127
3
21
3
223
3
7
5
26
6
97
6
108
5
224
3
54
3
204
3
248
4
24
6
156
6
208
5
70
4
80
3
166
3
184
4
228
5
134
6
239
5
111
4
44
3
52
3
32
4
74
5
8
6
177
5
78
4
222
2
144
2
92
3
134
4
100
5
92
5
43
4
156
2
20
2
204
2
1
4
8
5
67
5
60
4
172
2
242
1
130
2
168
3
201
4
84
5
148
4
26
3
11
2
102
2
120
3
164
4
82
5
210
4
93
3
42
2
59
2
59
3
116
4
74
5
28
5
197
3
98
2
39
2
4
3
61
4
44
5
60
5
33
4
153
2
18
2
196
2
249
3
4
5
91
5
101
4
210
2
17
2
170
2
204
3
216
4
94
5
160
4
24
3
23
2
102
2
120
3
174
4
108
5
239
4
119
3
56
2
64
2
61
3
116
4
78
5
34
5
214
3
111
2
41
2
4
3
59
4
48
5
78
5
54
4
167
2
26
2
203
2
10
4
33
5
126
5
148
4
247
2
39
2
170
2
205
3
234
4
125
5
199
4
58
3
45
2
118
2
130
3
185
4
121
5
250
4
140
3
77
2
84
2
67
3
135
4
93
5
49
5
236
3
125
2
51
2
13
3
68
4
55
5
80
5
64
4
191
2
52
2
228
2
14
4
28
5
124
5
143
4
238
2
38
2
179
2
206
3
236
4
126
5
197
4
77
3
79
2
144
2
164
3
210
4
128
5
16
5
175
3
120
2
117
2
107
3
153
4
105
5
67
5
0
4
170
2
102
2
61
3
120
4
102
5
117
5
94
4
225
2
84
2
4
3
46
4
46
5
128
5
162
4
31
3
97
2
235
2
252
3
4
5
139
5
220
4
104
3
115
2
181
2
185
3
231
4
144
5
44
5
204
3
144
2
148
2
130
3
168
4
110
5
69
5
16
4
192
2
141
2
94
3
132
4
87
5
88
5
88
4
255
2
144
2
60
3
78
4
40
5
92
5
123
4
20
3
124
2
7
3
12
4
0
5
103
5
172
4
84
3
132
2
216
2
212
3
231
4
120
5
4
5
199
3
200
2
232
2
218
3
236
4
158
5
107
5
61
4
5
3
218
2
153
3
180
4
150
5
188
5
244
4
5
4
254
3
238
4
32
6
0
7
92
7
227
6
24
6
204
5
83
6
76
7
180
7
107
7
24
6
108
4
109
3
165
3
152
4
161
5
33
6
168
5
96
4
68
3
84
3
52
4
53
5
216
5
170
5
142
4
100
3
32
3
225
3
236
4
173
5
176
5
176
4
85
3
224
2
144
3
171
4
140
5
200
5
238
4
160
3
8
3
157
3
152
4
136
5
247
5
76
5
8
4
53
3
137
3
124
4
129
5
8
6
156
5
87
4
44
3
48
3
18
4
44
5
241
5
227
5
200
4
105
3
19
3
212
3
248
4
230
5
20
6
28
5
171
3
8
3
168
3
199
4
208
5
60
6
115
5
252
3
30
3
157
3
181
4
208
5
107
6
233
5
132
4
101
3
113
3
112
4
165
5
92
6
16
6
211
4
156
3
140
3
122
4
156
5
116
6
99
6
56
5
228
3
154
3
94
4
120
5
91
6
120
6
128
5
30
4
137
3
36
4
50
5
29
6
112
6
155
5
41
4
88
3
210
3
175
4
159
5
23
6
112
5
12
4
2
3
20
3
240
3
253
4
141
5
44
5
215
3
156
2
128
2
84
3
93
4
36
5
3
5
213
3
100
2
9
2
197
2
228
3
194
4
228
4
225
3
130
2
230
1
124
2
141
3
124
4
232
4
42
4
200
2
4
2
115
2
104
3
105
4
243
4
86
4
25
3
23
2
52
2
40
3
71
4
245
4
172
4
115
3
61
2
31
2
254
2
36
4
244
4
247
4
229
3
133
2
35
2
214
2
238
3
225
4
24
5
64
4
213
2
37
2
189
2
219
3
206
4
53
5
122
4
24
3
65
2
158
2
149
3
164
4
58
5
172
4
84
3
82
2
102
2
84
3
115
4
28
5
220
4
171
3
114
2
68
2
15
3
29
4
217
4
235
4
206
3
93
2
251
1
165
2
184
3
174
4
225
4
244
3
155
2
238
1
105
2
111
3
108
4
214
4
30
4
172
2
204
1
39
2
28
3
49
4
213
4
88
4
10
3
247
1
4
2
248
2
29
4
204
4
156
4
110
3
40
2
252
1
219
2
5
4
236
4
249
4
232
3
132
2
15
2
194
2
224
3
227
4
40
5
92
4
239
2
52
2
172
2
199
3
208
4
88
5
167
4
52
3
82
2
169
2
156
3
173
4
78
5
230
4
148
3
116
2
111
2
88
3
134
4
78
5
44
5
243
3
153
2
81
2
47
3
84
4
64
5
87
5
88
4
236
2
78
2
232
2
12
4
251
4
52
5
72
4
215
2
37
2
177
2
206
3
205
4
76
5
155
4
50
3
88
2
178
2
177
3
216
4
141
5
29
5
210
3
186
2
200
2
200
3
254
4
173
5
136
5
103
4
30
3
204
2
135
3
161
4
132
5
161
5
153
4
41
3
157
2
49
3
56
4
26
5
65
5
93
4
215
2
4
2
108
2
107
3
110
4
244
4
94
4
24
3
108
2
27
3
136
4
16
6
211
6
120
6
64
5
62
4
188
4
20
6
71
7
240
7
72
7
105
5
100
3
182
2
102
3
124
4
93
5
119
5
102
4
244
2
106
2
5
3
28
4
26
5
100
5
140
4
30
3
85
2
192
2
190
3
185
4
52
5
147
4
41
3
47
2
105
2
88
3
116
4
27
5
180
4
96
3
49
2
33
2
5
3
39
4
225
4
192
4
167
3
81
2
12
2
224
2
249
3
230
4
19
5
24
4
181
2
54
2
224
2
0
4
1
5
93
5
152
4
47
3
98
2
213
2
221
3
226
4
110
5
219
4
120
3
129
2
183
2
169
3
201
4
127
5
37
5
229
3
197
2
182
2
168
3
211
4
152
5
137
5
118
4
40
3
225
2
174
3
204
4
180
5
231
5
241
4
140
3
10
3
181
3
196
4
179
5
16
6
93
5
238
3
32
3
140
3
147
4
159
5
54
6
167
5
63
4
68
3
116
3
100
4
118
5
32
6
198
5
128
4
75
3
37
3
244
3
6
5
180
5
140
5
98
4
237
2
124
2
46
3
52
4
12
5
38
5
22
4
152
2
243
1
127
2
136
3
123
4
214
4
13
4
163
2
208
1
68
2
66
3
65
4
205
4
71
4
236
2
233
1
21
2
2
3
49
4
219
4
140
4
80
3
30
2
252
1
224
2
6
4
212
4
204
4
181
3
84
2
248
1
179
2
188
3
165
4
215
4
228
3
124
2
230
1
119
2
132
3
130
4
225
4
37
4
196
2
238
1
76
2
82
3
105
4
6
5
126
4
17
3
14
2
47
2
25
3
52
4
231
4
160
4
104
3
61
2
26
2
236
2
14
4
212
4
210
4
192
3
92
2
244
1
173
2
196
3
180
4
235
4
248
3
136
2
236
1
124
2
140
3
139
4
252
4
70
4
228
2
8
2
97
2
96
3
116
4
4
5
130
4
32
3
20
2
52
2
36
3
72
4
243
4
159
4
100
3
50
2
1
2
220
2
251
3
188
4
204
4
191
3
97
2
252
1
188
2
205
3
181
4
247
4
17
4
164
2
0
2
141
2
152
3
151
4
4
5
84
4
239
2
14
2
108
2
105
3
120
4
22
5
151
4
61
3
48
2
71
2
45
3
60
4
238
4
180
4
136
3
78
2
28
2
0
3
30
4
223
4
212
4
206
3
116
2
5
2
190
2
205
3
188
4
255
4
17
4
165
2
3
2
134
2
148
3
150
4
0
5
84
4
247
2
20
2
97
2
91
3
104
4
4
5
133
4
68
3
53
2
79
2
53
3
79
4
3
5
206
4
168
3
114
2
68
2
25
3
59
4
8
5
14
5
17
4
172
2
64
2
242
2
5
4
237
4
55
5
81
4
246
2
74
2
188
2
177
3
179
4
36
5
111
4
19
3
36
2
108
2
103
3
113
4
12
5
158
4
77
3
65
2
79
2
46
3
68
4
254
4
196
4
164
3
103
2
36
2
238
2
9
4
208
4
212
4
217
3
127
2
28
2
246
2
80
4
156
5
96
6
212
5
156
4
247
3
156
4
252
5
139
7
108
8
216
7
127
6
12
5
125
4
177
4
69
5
180
5
53
5
223
3
193
2
181
2
127
3
137
4
59
5
9
5
225
3
153
2
82
2
33
3
59
4
14
5
36
5
39
4
192
2
68
2
237
2
248
3
228
4
61
5
108
4
5
3
75
2
182
2
180
3
183
4
53
5
156
4
65
3
80
2
148
2
161
3
168
4
60
5
214
4
148
3
126
2
129
2
98
3
124
4
62
5
29
5
4
4
181
2
103
2
44
3
67
4
24
5
52
5
66
4
222
2
92
2
11
3
31
4
24
5
118
5
174
4
80
3
154
2
18
3
30
4
49
5
197
5
64
5
239
3
253
2
46
3
47
4
69
5
238
5
160
5
92
4
64
3
67
3
33
4
48
5
243
5
224
5
208
4
135
3
52
3
4
4
35
5
254
5
32
6
45
5
196
3
52
3
207
3
221
4
208
5
42
6
85
5
222
3
26
3
125
3
116
4
113
5
228
5
64
5
215
3
196
2
224
2
203
3
201
4
80
5
241
4
164
3
108
2
75
2
21
3
28
4
209
4
180
4
152
3
71
2
228
1
164
2
202
3
156
4
181
4
187
3
82
2
185
1
87
2
101
3
100
4
214
4
17
4
168
2
222
1
60
2
57
3
71
4
212
4
76
4
247
2
244
1
31
2
14
3
28
4
204
4
139
4
80
3
33
2
10
2
225
2
244
3
187
4
172
4
156
3
72
2
232
1
168
2
195
3
158
4
206
4
231
3
124
2
228
1
135
2
142
3
120
4
218
4
20
4
184
2
230
1
65
2
70
3
96
4
237
4
102
4
15
3
5
2
40
2
18
3
41
4
212
4
150
4
94
3
40
2
7
2
220
2
239
3
187
4
181
4
165
3
85
2
234
1
164
2
189
3
168
4
224
4
252
3
142
2
242
1
152
2
168
3
162
4
20
5
65
4
231
2
6
2
96
2
87
3
101
4
8
5
124
4
34
3
33
2
54
2
43
3
76
4
242
4
156
4
116
3
62
2
17
2
228
2
10
4
216
4
222
4
204
3
118
2
18
2
197
2
214
3
190
4
246
4
17
4
171
2
7
2
148
2
160
3
152
4
8
5
88
4
246
2
23
2
107
2
103
3
114
4
15
5
152
4
70
3
58
2
78
2
50
3
78
4
255
4
198
4
155
3
96
2
48
2
8
3
38
4
1
5
8
5
239
3
140
2
35
2
200
2
236
3
211
4
24
5
51
4
208
2
38
2
172
2
182
3
179
4
37
5
118
4
20
3
50
2
134
2
121
3
136
4
39
5
185
4
113
3
99
2
115
2
86
3
114
4
37
5
244
4
208
3
153
2
101
2
51
3
70
4
17
5
27
5
26
4
184
2
75
2
0
3
16
4
250
4
62
5
87
4
242
2
62
2
194
2
211
3
196
4
59
5
143
4
50
3
75
2
147
2
138
3
162
4
51
5
184
4
114
3
99
2
106
2
74
3
99
4
27
5
20
5
34
4
53
3
94
3
138
4
200
5
174
6
186
6
226
5
8
5
14
5
234
5
237
6
158
7
75
7
199
5
222
3
241
2
95
3
91
4
78
5
187
5
11
5
166
3
186
2
235
2
224
3
220
4
128
5
18
5
205
3
178
2
185
2
191
3
224
4
128
5
72
5
48
4
245
2
189
2
136
3
142
4
94
5
115
5
120
4
40
3
187
2
99
3
102
4
75
5
144
5
194
4
106
3
180
2
40
3
39
4
38
5
157
5
23
5
214
3
234
2
22
3
242
3
238
4
126
5
18
5
227
3
246
2
24
3
5
4
22
5
176
5
129
5
114
4
73
3
48
3
2
4
36
5
240
5
247
5
226
4
188
3
94
3
240
3
204
4
168
5
255
5
66
5
250
3
86
3
220
3
250
4
6
6
118
6
215
5
147
4
186
3
234
3
195
4
196
5
98
6
9
6
205
4
176
3
187
3
130
4
126
5
47
6
24
6
34
5
248
3
183
3
115
4
120
5
52
6
58
6
63
5
245
3
147
3
62
4
28
5
194
5
242
5
22
5
182
3
252
2
120
3
126
4
90
5
199
5
59
5
3
4
58
3
118
3
91
4
82
5
224
5
135
5
80
4
64
3
57
3
10
4
3
5
148
5
101
5
75
4
246
2
169
2
102
3
99
4
34
5
52
5
50
4
214
2
89
2
225
2
204
3
159
4
221
4
8
4
160
2
211
1
34
2
247
2
203
3
36
4
137
3
51
2
35
1
62
1
30
2
44
3
198
3
130
3
80
2
54
1
51
1
34
2
73
3
32
4
45
4
50
3
254
1
220
1
170
2
176
3
154
4
223
4
10
4
172
2
55
2
216
2
192
3
118
4
190
4
10
4
183
2
198
1
30
2
46
3
69
4
232
4
120
4
42
3
64
2
96
2
28
3
16
4
203
4
174
4
94
3
35
2
26
2
244
2
24
4
232
4
229
4
234
3
179
2
60
2
231
2
247
3
216
4
26
5
48
4
228
2
87
2
3
3
37
4
34
5
131
5
202
4
114
3
137
2
223
2
223
3
251
4
156
5
46
5
209
3
200
2
219
2
178
3
184
4
106
5
59
5
12
4
194
2
145
2
91
3
118
4
78
5
80
5
35
4
175
2
50
2
230
2
238
3
221
4
35
5
55
4
204
2
30
2
161
2
174
3
190
4
67
5
141
4
43
3
46
2
92
2
86
3
135
4
46
5
178
4
84
3
50
2
54
2
27
3
62
4
14
5
232
4
180
3
96
2
33
2
222
2
3
4
227
4
5
5
255
3
131
2
246
1
174
2
208
3
214
4
56
5
93
4
217
2
18
2
149
2
181
3
218
4
94
5
175
4
55
3
43
2
101
2
106
3
139
4
66
5
238
4
141
3
62
2
38
2
10
3
49
4
6
5
242
4
168
3
62
2
221
1
172
2
34
4
7
5
232
4
198
3
70
2
159
1
87
2
110
3
114
4
215
4
240
3
98
2
134
1
21
2
102
3
214
4
202
5
90
5
22
4
15
3
50
3
66
4
203
5
4
7
3
7
153
5
50
4
146
3
211
3
139
4
54
5
43
5
1
4
134
2
253
1
173
2
234
3
226
4
30
5
32
4
152
2
226
1
131
2
197
3
213
4
58
5
87
4
206
2
222
1
66
2
91
3
134
4
58
5
191
4
82
3
37
2
46
2
21
3
78
4
25
5
234
4
146
3
66
2
30
2
11
3
78
4
48
5
51
5
14
4
146
2
62
2
30
3
99
4
76
5
139
5
154
4
239
2
48
2
208
2
246
3
5
5
134
5
193
4
59
3
94
2
198
2
205
3
239
4
136
5
244
4
138
3
115
2
158
2
167
3
218
4
173
5
91
5
250
3
198
2
178
2
146
3
192
4
168
5
174
5
167
4
80
3
244
2
151
3
187
4
182
5
235
5
240
4
127
3
213
2
106
3
136
4
154
5
11
6
47
5
199
3
241
2
84
3
77
4
82
5
229
5
98
5
14
4
227
2
236
2
234
3
249
4
131
5
34
5
215
3
130
2
71
2
252
2
31
4
219
4
194
4
140
3
19
2
156
1
86
2
110
3
82
4
127
4
126
3
12
2
106
1
250
1
13
3
17
4
138
4
214
3
110
2
125
1
220
1
218
2
243
3
138
4
4
4
166
2
139
1
164
1
150
2
206
3
155
4
94
4
12
3
200
1
158
1
123
2
180
3
155
4
178
4
163
3
53
2
178
1
120
2
174
3
173
4
245
4
15
4
154
2
228
1
119
2
158
3
182
4
50
5
103
4
230
2
243
1
74
2
84
3
123
4
41
5
180
4
91
3
44
2
45
2
32
3
83
4
18
5
208
4
139
3
68
2
15
2
237
2
22
4
244
4
248
4
227
3
128
2
5
2
180
2
218
3
209
4
21
5
50
4
185
2
3
2
139
2
146
3
156
4
39
5
101
4
228
2
242
1
65
2
56
3
86
4
248
4
127
4
43
3
10
2
20
2
255
2
40
4
240
4
192
4
137
3
62
2
3
2
213
2
249
3
232
4
255
4
246
3
138
2
16
2
182
2
218
3
205
4
25
5
67
4
211
2
35
2
175
2
195
3
206
4
87
5
163
4
78
3
91
2
140
2
111
3
152
4
82
5
235
4
158
3
104
2
94
2
67
3
107
4
40
5
251
4
194
3
118
2
70
2
18
3
60
4
26
5
45
5
40
4
203
2
57
2
232
2
10
4
254
4
87
5
131
4
22
3
86
2
215
2
225
3
228
4
94
5
178
4
71
3
102
2
173
2
156
3
174
4
90
5
235
4
154
3
113
2
116
2
96
3
134
4
72
5
34
5
253
3
182
2
119
2
68
3
90
4
43
5
72
5
73
4
218
2
82
2
244
2
10
4
250
4
71
5
106
4
254
2
64
2
186
2
191
3
196
4
82
5
178
4
79
3
90
2
142
2
131
3
160
4
87
5
0
5
179
3
121
2
123
2
115
3
141
4
78
5
54
5
14
4
208
2
163
2
163
3
15
5
83
6
195
6
222
5
120
4
224
3
158
4
42
6
119
7
219
7
250
6
50
5
215
3
190
3
110
4
77
5
206
5
29
5
167
3
161
2
201
2
172
3
194
4
104
5
12
5
194
3
147
2
134
2
111
3
149
4
94
5
78
5
38
4
188
2
104
2
50
3
86
4
59
5
96
5
96
4
230
2
72
2
227
2
2
4
4
5
110
5
166
4
57
3
96
2
206
2
208
3
210
4
126
5
241
4
142
3
146
2
195
2
186
3
225
4
150
5
63
5
247
3
190
2
166
2
131
3
169
4
123
5
110
5
74
4
232
2
142
2
84
3
112
4
87
5
143
5
159
4
57
3
167
2
71
3
106
4
107
5
229
5
50
5
191
3
227
2
83
3
86
4
102
5
254
5
123
5
43
4
46
3
97
3
71
4
130
5
47
6
228
5
167
4
115
3
93
3
70
4
107
5
47
6
35
6
3
5
174
3
90
3
25
4
52
5
22
6
66
6
67
5
210
3
44
3
188
3
203
4
187
5
20
6
67
5
207
3
242
2
62
3
27
4
31
5
163
5
3
5
148
3
129
2
163
2
136
3
162
4
70
5
226
4
142
3
75
2
58
2
42
3
90
4
44
5
35
5
5
4
167
2
83
2
21
3
57
4
42
5
96
5
108
4
2
3
110
2
14
3
50
4
38
5
150
5
226
4
134
3
170
2
50
3
55
4
69
5
214
5
79
5
240
3
235
2
22
3
10
4
49
5
234
5
171
5
98
4
16
3
236
2
187
3
207
4
152
5
156
5
137
4
28
3
182
2
120
3
155
4
139
5
211
5
227
4
104
3
181
2
70
3
91
4
87
5
186
5
244
4
136
3
186
2
43
3
27
4
12
5
154
5
27
5
203
3
202
2
237
2
230
3
11
5
177
5
108
5
50
4
10
3
218
2
186
3
217
4
166
5
166
5
155
4
70
3
235
2
166
3
189
4
167
5
239
5
7
5
158
3
9
3
145
3
152
4
148
5
254
5
44
5
198
3
234
2
59
3
48
4
67
5
204
5
69
5
243
3
240
2
21
3
247
3
10
5
179
5
114
5
66
4
247
2
215
2
172
3
205
4
160
5
156
5
160
4
86
3
222
2
136
3
157
4
126
5
188
5
226
4
119
3
213
2
106
3
116
4
116
5
229
5
28
5
180
3
207
2
30
3
28
4
46
5
184
5
60
5
234
3
209
2
238
2
221
3
252
4
180
5
126
5
85
4
8
3
225
2
168
3
205
4
171
5
204
5
196
4
86
3
214
2
128
3
158
4
140
5
216
5
243
4
112
3
204
2
91
3
95
4
98
5
218
5
20
5
144
3
149
2
222
2
232
3
22
5
197
5
88
5
2
4
216
2
252
2
230
3
229
4
158
5
127
5
77
4
253
2
211
2
157
3
164
4
106
5
133
5
138
4
32
3
157
2
95
3
123
4
125
5
228
5
251
4
124
3
181
2
62
3
68
4
68
5
203
5
37
5
228
3
42
3
213
3
68
5
199
6
172
7
116
7
47
6
252
4
136
5
251
6
20
8
164
8
226
7
188
5
152
3
182
2
60
3
76
4
21
5
9
5
212
3
59
2
132
1
8
2
14
3
4
4
92
4
115
3
220
1
253
0
115
1
140
2
206
3
130
4
240
3
137
2
153
1
228
1
244
2
66
4
13
5
196
4
125
3
70
2
70
2
66
3
132
4
136
5
151
5
101
4
244
2
167
2
137
3
208
4
215
5
9
6
8
5
125
3
204
2
108
3
151
4
164
5
16
6
64
5
188
3
208
2
54
3
63
4
92
5
243
5
88
5
229
3
220
2
4
3
253
3
43
5
236
5
158
5
89
4
56
3
40
3
255
3
9
5
212
5
209
5
168
4
60
3
235
2
200
3
14
5
11
6
68
6
64
5
195
3
36
3
198
3
254
4
25
6
152
6
219
5
101
4
136
3
246
3
5
5
52
6
215
6
76
6
222
4
197
3
237
3
236
4
27
6
196
6
120
6
45
5
236
3
220
3
181
4
164
5
68
6
59
6
13
5
129
3
6
3
185
3
228
4
203
5
4
6
249
4
83
3
134
2
8
3
27
4
52
5
192
5
7
5
77
3
30
2
78
2
85
3
153
4
129
5
28
5
116
3
242
1
208
1
220
2
38
4
232
4
176
4
103
3
8
2
209
1
179
2
216
3
224
4
255
4
184
3
28
2
158
1
81
2
148
3
167
4
237
4
8
4
135
2
172
1
45
2
99
3
110
4
196
4
3
4
185
2
244
1
71
2
80
3
111
4
10
5
84
4
236
2
239
1
37
2
12
3
11
4
159
4
116
4
82
3
22
2
241
1
221
2
4
4
204
4
167
4
145
3
68
2
223
1
132
2
168
3
175
4
228
4
4
4
173
2
206
1
52
2
102
3
113
4
172
4
217
3
108
2
113
1
174
1
161
2
192
3
123
4
21
4
180
2
127
1
120
1
92
2
143
3
84
4
40
4
11
3
184
1
92
1
23
2
71
3
46
4
67
4
44
3
160
1
25
1
188
1
222
2
241
3
73
4
61
3
207
1
25
1
133
1
119
2
130
3
22
4
102
3
224
1
220
0
26
1
20
2
69
3
15
4
180
3
84
2
19
1
248
0
221
1
27
3
246
3
228
3
170
2
44
1
197
0
134
1
182
2
182
3
230
3
212
2
61
1
155
0
52
1
106
2
155
3
22
4
57
3
131
1
140
0
236
0
29
2
80
3
14
4
131
3
240
1
173
0
195
0
224
1
76
3
49
4
224
3
148
2
71
1
9
1
236
1
91
3
92
4
128
4
84
3
224
1
101
1
33
2
93
3
104
4
149
4
112
3
184
1
251
0
145
1
220
2
21
4
152
4
180
3
247
1
222
0
52
1
87
2
156
3
108
4
224
3
49
2
233
0
250
0
4
2
109
3
107
4
32
4
157
2
24
1
216
0
204
1
71
3
121
4
200
4
221
3
161
2
125
2
143
3
4
5
93
6
255
6
110
6
54
5
143
4
16
5
232
5
113
6
95
6
30
5
64
3
12
2
73
2
102
3
166
4
108
5
213
4
28
3
188
1
203
1
221
2
88
4
97
5
48
5
196
3
55
2
225
1
220
2
87
4
132
5
180
5
133
4
208
2
60
2
250
2
73
4
128
5
224
5
204
4
244
2
245
1
121
2
216
3
67
5
0
6
68
5
166
3
144
2
232
2
19
4
136
5
110
6
1
6
101
4
4
3
2
3
16
4
136
5
153
6
108
6
0
5
97
3
237
2
200
3
39
5
61
6
100
6
46
5
116
3
224
2
178
3
28
5
96
6
224
6
236
5
52
4
65
3
204
3
16
5
107
6
36
7
108
6
199
4
159
3
228
3
39
5
144
6
108
7
227
6
76
5
234
3
221
3
220
4
56
6
55
7
4
7
156
5
229
3
120
3
76
4
171
5
204
6
12
7
224
5
0
4
56
3
227
3
30
5
64
6
155
6
133
5
168
3
167
2
12
3
28
4
71
5
228
5
24
5
74
3
0
2
48
2
68
3
120
4
60
5
193
4
40
3
188
1
173
1
165
2
24
4
43
5
5
5
156
3
14
2
166
1
145
2
14
4
52
5
96
5
83
4
148
2
236
1
174
2
254
3
78
5
229
5
252
4
56
3
64
2
174
2
238
3
67
5
0
6
84
5
158
3
80
2
111
2
139
3
236
4
236
5
134
5
228
3
70
2
22
2
0
3
101
4
122
5
102
5
254
3
79
2
202
1
140
2
226
3
4
5
68
5
47
4
112
2
169
1
85
2
173
3
8
5
161
5
191
4
237
2
217
1
53
2
110
3
215
4
152
5
236
4
43
3
200
1
218
1
241
2
88
4
92
5
11
5
126
3
248
1
190
1
172
2
25
4
64
5
68
5
236
3
62
2
160
1
108
2
215
3
16
5
110
5
96
4
149
2
197
1
94
2
189
3
32
5
182
5
193
4
249
2
228
1
68
2
124
3
231
4
184
5
30
5
109
3
4
2
16
2
38
3
136
4
140
5
75
5
182
3
30
2
218
1
188
2
44
4
83
5
88
5
4
4
79
2
180
1
128
2
233
3
28
5
100
5
74
4
116
2
156
1
65
2
157
3
244
4
157
5
191
4
236
2
186
1
4
2
64
3
205
4
188
5
56
5
105
3
217
1
204
1
234
2
108
4
148
5
103
5
200
3
20
2
190
1
176
2
60
4
119
5
156
5
84
4
137
2
220
1
164
2
23
4
108
5
216
5
199
4
228
2
237
1
127
2
204
3
40
5
211
5
246
4
52
3
245
1
61
2
116
3
215
4
176
5
28
5
102
3
236
1
228
1
238
2
92
4
94
5
22
5
153
3
20
2
207
1
173
2
240
3
237
4
225
4
173
3
75
2
0
2
198
2
226
3
181
4
212
4
234
3
149
2
30
2
195
2
198
3
192
4
51
5
164
4
174
3
91
3
253
3
20
5
27
6
164
6
100
6
163
5
12
5
60
5
251
5
117
6
104
6
125
5
252
3
223
2
229
2
168
3
156
4
49
5
240
4
220
3
186
2
120
2
44
3
39
4
236
4
14
5
47
4
246
2
158
2
78
3
77
4
60
5
138
5
168
4
76
3
149
2
234
2
188
3
155
4
252
4
85
4
19
3
53
2
110
2
71
3
76
4
232
4
151
4
104
3
104
2
111
2
63
3
70
4
255
4
217
4
212
3
172
2
110
2
36
3
37
4
236
4
13
5
55
4
249
2
148
2
59
3
49
4
24
5
97
5
144
4
56
3
139
2
244
2
229
3
211
4
77
5
188
4
119
3
148
2
224
2
231
3
237
4
140
5
65
5
28
4
28
3
37
3
244
3
8
5
201
5
168
5
172
4
142
3
80
3
248
3
247
4
204
5
0
6
55
5
253
3
137
3
27
4
16
5
244
5
79
6
153
5
88
4
178
3
20
4
248
4
224
5
76
6
180
5
98
4
92
3
124
3
71
4
60
5
192
5
106
5
44
4
4
3
235
2
168
3
164
4
79
5
44
5
9
4
225
2
140
2
57
3
71
4
24
5
56
5
83
4
249
2
120
2
32
3
31
4
0
5
83
5
150
4
78
3
146
2
236
2
213
3
209
4
70
5
188
4
130
3
156
2
208
2
170
3
148
4
40
5
234
4
192
3
172
2
160
2
100
3
72
4
247
4
225
4
236
3
193
2
114
2
24
3
29
4
236
4
8
5
64
4
246
2
116
2
3
3
245
3
220
4
69
5
145
4
73
3
138
2
220
2
185
3
177
4
49
5
196
4
151
3
164
2
196
2
160
3
164
4
88
5
33
5
246
3
222
2
199
2
126
3
124
4
53
5
52
5
68
4
25
3
188
2
100
3
96
4
48
5
111
5
167
4
92
3
206
2
75
3
52
4
20
5
125
5
206
4
142
3
203
2
17
3
239
3
227
4
112
5
1
5
207
3
213
2
232
2
187
3
180
4
88
5
27
5
252
3
222
2
187
2
124
3
132
4
82
5
84
5
86
4
7
3
161
2
61
3
53
4
12
5
91
5
179
4
114
3
223
2
79
3
55
4
22
5
129
5
224
4
153
3
202
2
31
3
0
4
248
4
148
5
44
5
219
3
5
3
19
3
216
3
218
4
135
5
70
5
64
4
54
3
20
3
188
3
188
4
123
5
116
5
124
4
79
3
248
2
156
3
157
4
100
5
156
5
222
4
159
3
8
3
135
3
108
4
84
5
206
5
44
5
248
3
60
3
140
3
101
4
75
5
200
5
88
5
47
4
63
3
80
3
39
4
32
5
188
5
131
5
97
4
44
3
255
2
206
3
206
4
127
5
116
5
142
4
94
3
0
3
164
3
178
4
127
5
188
5
219
4
134
3
244
2
126
3
96
4
68
5
167
5
4
5
192
3
250
2
70
3
36
4
35
5
180
5
104
5
105
4
198
3
64
4
111
5
148
6
69
7
43
7
40
6
100
5
161
5
104
6
68
7
171
7
8
7
96
5
149
3
241
2
134
3
135
4
72
5
116
5
155
4
62
3
140
2
249
2
220
3
192
4
47
5
136
4
68
3
119
2
176
2
138
3
131
4
20
5
181
4
150
3
149
2
152
2
93
3
81
4
4
5
226
4
199
3
152
2
96
2
20
3
28
4
243
4
13
5
49
4
241
2
113
2
4
3
14
4
240
4
68
5
138
4
57
3
148
2
9
3
252
3
238
4
102
5
201
4
129
3
166
2
221
2
200
3
207
4
88
5
240
4
187
3
174
2
180
2
135
3
140
4
65
5
43
5
36
4
245
2
191
2
125
3
133
4
97
5
120
5
142
4
82
3
228
2
140
3
154
4
120
5
204
5
22
5
206
3
47
3
171
3
148
4
128
5
251
5
105
5
44
4
103
3
156
3
116
4
113
5
16
6
196
5
160
4
156
3
144
3
96
4
92
5
4
6
223
5
199
4
140
3
71
3
240
3
222
4
151
5
156
5
156
4
63
3
176
2
44
3
18
4
208
4
16
5
69
4
241
2
64
2
155
2
112
3
76
4
182
4
24
4
220
2
7
2
53
2
12
3
10
4
148
4
64
4
33
3
37
2
48
2
247
2
232
3
148
4
135
4
133
3
92
2
39
2
223
2
225
3
171
4
200
4
224
3
154
2
25
2
168
2
165
3
118
4
207
4
28
4
198
2
17
2
130
2
112
3
104
4
231
4
84
4
22
3
51
2
93
2
60
3
64
4
220
4
137
4
99
3
77
2
68
2
21
3
17
4
185
4
160
4
140
3
73
2
0
2
192
2
224
3
191
4
212
4
252
3
193
2
71
2
228
2
233
3
214
4
68
5
149
4
69
3
136
2
218
2
158
3
148
4
13
5
116
4
36
3
53
2
80
2
46
3
47
4
212
4
148
4
118
3
85
2
80
2
34
3
37
4
233
4
224
4
212
3
148
2
67
2
246
2
246
3
207
4
248
4
44
4
247
2
116
2
245
2
243
3
228
4
78
5
154
4
56
3
116
2
219
2
198
3
200
4
98
5
228
4
168
3
192
2
224
2
192
3
206
4
100
5
36
5
15
4
225
2
204
2
155
3
164
4
104
5
101
5
88
4
9
3
175
2
85
3
92
4
61
5
108
5
132
4
35
3
126
2
1
3
3
4
244
4
100
5
173
4
68
3
121
2
225
2
190
3
196
4
91
5
236
4
182
3
194
2
217
2
185
3
201
4
116
5
56
5
39
4
244
2
212
2
161
3
166
4
112
5
122
5
124
4
56
3
218
2
121
3
132
4
107
5
168
5
208
4
123
3
228
2
108
3
99
4
76
5
176
5
255
4
172
3
232
2
71
3
32
4
20
5
167
5
44
5
4
4
3
3
17
3
232
3
247
4
161
5
101
5
71
4
16
3
224
2
163
3
164
4
100
5
107
5
101
4
24
3
191
2
132
3
180
4
209
5
93
6
224
5
195
4
52
4
180
4
215
5
56
7
36
8
189
7
109
6
88
5
13
5
78
5
223
5
78
6
204
5
118
4
87
3
77
3
21
4
15
5
173
5
108
5
71
4
14
3
204
2
127
3
118
4
60
5
69
5
77
4
1
3
158
2
56
3
52
4
3
5
57
5
111
4
53
3
161
2
36
3
23
4
244
4
92
5
195
4
116
3
159
2
229
2
191
3
174
4
51
5
204
4
164
3
187
2
208
2
169
3
181
4
108
5
76
5
49
4
14
3
240
2
183
3
193
4
140
5
158
5
177
4
116
3
22
3
180
3
172
4
147
5
213
5
24
5
213
3
56
3
174
3
160
4
133
5
246
5
93
5
29
4
88
3
164
3
133
4
121
5
19
6
172
5
124
4
131
3
133
3
92
4
98
5
13
6
232
5
219
4
180
3
124
3
58
4
53
5
253
5
39
6
65
5
240
3
123
3
21
4
4
5
239
5
48
6
112
5
47
4
140
3
238
3
195
4
148
5
240
5
79
5
236
3
29
3
83
3
36
4
14
5
146
5
28
5
216
3
195
2
176
2
116
3
107
4
1
5
212
4
195
3
140
2
76
2
7
3
0
4
204
4
230
4
248
3
172
2
55
2
201
2
196
3
166
4
238
4
45
4
229
2
60
2
166
2
155
3
132
4
252
4
109
4
37
3
64
2
134
2
100
3
94
4
247
4
149
4
104
3
94
2
76
2
28
3
33
4
208
4
192
4
205
3
142
2
60
2
231
2
232
3
181
4
227
4
4
4
196
2
90
2
240
2
232
3
195
4
5
5
68
4
251
2
69
2
173
2
161
3
148
4
24
5
143
4
70
3
100
2
155
2
117
3
120
4
6
5
168
4
132
3
126
2
110
2
65
3
78
4
253
4
232
4
247
3
184
2
100
2
28
3
38
4
4
5
51
5
68
4
234
2
99
2
229
2
214
3
183
4
16
5
94
4
34
3
105
2
208
2
187
3
169
4
40
5
160
4
88
3
100
2
160
2
126
3
140
4
58
5
240
4
196
3
165
2
132
2
72
3
83
4
5
5
248
4
247
3
193
2
130
2
71
3
77
4
40
5
86
5
117
4
32
3
138
2
4
3
4
4
241
4
69
5
156
4
85
3
145
2
240
2
229
3
213
4
88
5
218
4
144
3
160
2
206
2
168
3
172
4
90
5
28
5
253
3
231
2
201
2
140
3
151
4
76
5
72
5
87
4
21
3
196
2
122
3
124
4
76
5
125
5
161
4
89
3
210
2
85
3
64
4
66
5
164
5
6
5
207
3
12
3
88
3
70
4
68
5
208
5
97
5
28
4
52
3
87
3
53
4
60
5
224
5
149
5
101
4
70
3
37
3
252
3
239
4
160
5
156
5
162
4
92
3
8
3
187
3
185
4
150
5
210
5
236
4
173
3
35
3
172
3
164
4
134
5
213
5
40
5
226
3
17
3
110
3
99
4
72
5
184
5
67
5
29
4
92
3
198
3
4
5
108
6
97
7
45
7
52
6
66
5
100
5
180
6
15
8
196
8
158
8
32
7
36
5
36
4
127
4
88
5
29
6
71
6
104
5
8
4
107
3
220
3
193
4
166
5
8
6
92
5
18
4
60
3
132
3
103
4
81
5
228
5
127
5
52
4
36
3
54
3
12
4
20
5
193
5
127
5
97
4
59
3
21
3
220
3
224
4
149
5
156
5
167
4
97
3
4
3
179
3
184
4
140
5
219
5
4
5
180
3
30
3
153
3
140
4
127
5
230
5
76
5
11
4
56
3
128
3
110
4
95
5
236
5
160
5
100
4
84
3
79
3
31
4
29
5
199
5
156
5
140
4
128
3
80
3
4
4
3
5
200
5
208
5
219
4
150
3
56
3
219
3
236
4
196
5
11
6
60
5
240
3
90
3
213
3
204
4
195
5
53
6
156
5
83
4
127
3
200
3
179
4
184
5
76
6
239
5
184
4
184
3
193
3
145
4
143
5
55
6
8
6
248
4
198
3
124
3
49
4
47
5
221
5
223
5
215
4
116
3
239
2
126
3
100
4
52
5
110
5
149
4
56
3
137
2
236
2
212
3
186
4
41
5
144
4
69
3
95
2
152
2
122
3
112
4
252
4
161
4
108
3
100
2
108
2
60
3
64
4
243
4
212
4
200
3
170
2
104
2
36
3
39
4
230
4
8
5
19
4
204
2
85
2
237
2
222
3
200
4
21
5
62
4
223
2
50
2
162
2
142
3
127
4
236
4
92
4
35
3
68
2
126
2
91
3
80
4
232
4
151
4
104
3
102
2
103
2
52
3
47
4
227
4
200
4
204
3
146
2
71
2
252
2
0
4
173
4
214
4
238
3
166
2
46
2
200
2
181
3
148
4
225
4
28
4
208
2
39
2
140
2
124
3
119
4
252
4
108
4
35
3
52
2
104
2
67
3
61
4
212
4
135
4
88
3
73
2
68
2
20
3
252
3
201
4
176
4
166
3
105
2
20
2
205
2
217
3
157
4
192
4
219
3
137
2
12
2
164
2
153
3
128
4
215
4
25
4
205
2
23
2
120
2
110
3
99
4
221
4
88
4
33
3
53
2
100
2
74
3
72
4
228
4
160
4
125
3
100
2
73
2
16
3
28
4
214
4
196
4
192
3
134
2
52
2
232
2
242
3
188
4
233
4
8
4
189
2
46
2
200
2
199
3
168
4
15
5
71
4
255
2
66
2
161
2
131
3
115
4
253
4
126
4
58
3
75
2
106
2
61
3
94
4
251
4
178
4
145
3
123
2
107
2
76
3
96
4
8
5
235
4
235
3
174
2
91
2
12
3
253
3
219
4
254
4
28
4
206
2
62
2
202
2
198
3
171
4
14
5
99
4
23
3
78
2
174
2
149
3
144
4
27
5
160
4
100
3
114
2
142
2
108
3
112
4
13
5
202
4
174
3
132
2
100
2
51
3
56
4
8
5
54
5
130
4
160
3
186
3
171
4
190
5
135
6
190
6
57
6
115
5
42
5
166
5
131
6
242
6
160
6
86
5
179
3
216
2
51
3
17
4
8
5
130
5
247
4
158
3
158
2
168
2
129
3
139
4
38
5
231
4
202
3
175
2
141
2
98
3
105
4
31
5
30
5
24
4
210
2
123
2
35
3
39
4
10
5
66
5
108
4
35
3
134
2
12
3
3
4
238
4
83
5
174
4
100
3
143
2
230
2
206
3
200
4
91
5
1
5
210
3
217
2
224
2
187
3
190
4
90
5
28
5
1
4
222
2
182
2
130
3
137
4
73
5
90
5
104
4
37
3
210
2
129
3
135
4
106
5
177
5
230
4
158
3
252
2
114
3
110
4
91
5
209
5
55
5
242
3
37
3
122
3
102
4
90
5
0
6
145
5
95
4
105
3
119
3
84
4
102
5
19
6
232
5
218
4
182
3
138
3
82
4
99
5
54
6
66
6
63
5
234
3
123
3
21
4
14
5
227
5
34
6
68
5
234
3
54
3
147
3
118
4
82
5
174
5
248
4
147
3
166
2
219
2
170
3
152
4
31
5
176
4
115
3
110
2
104
2
49
3
46
4
207
4
166
4
150
3
105
2
53
2
3
3
6
4
199
4
210
4
214
3
146
2
37
2
200
2
196
3
166
4
240
4
36
4
219
2
43
2
162
2
151
3
146
4
16
5
112
4
26
3
54
2
123
2
96
3
98
4
248
4
158
4
110
3
103
2
102
2
62
3
70
4
241
4
204
4
194
3
146
2
88
2
23
3
19
4
222
4
251
4
17
4
194
2
80
2
240
2
243
3
211
4
24
5
74
4
250
2
69
2
180
2
169
3
150
4
16
5
123
4
53
3
86
2
158
2
115
3
116
4
255
4
178
4
140
3
126
2
115
2
65
3
74
4
254
4
228
4
218
3
160
2
90
2
30
3
34
4
235
4
24
5
34
4
202
2
83
2
239
2
235
3
211
4
37
5
101
4
11
3
79
2
186
2
179
3
178
4
48
5
160
4
81
3
98
2
150
2
122
3
126
4
32
5
207
4
160
3
139
2
122
2
72
3
107
4
34
5
4
5
238
3
180
2
102
2
38
3
43
4
249
4
32
5
69
4
248
2
123
2
12
3
5
4
226
4
56
5
122
4
42
3
110
2
210
2
198
3
188
4
59
5
184
4
113
3
131
2
178
2
149
3
154
4
62
5
239
4
198
3
177
2
155
2
100
3
107
4
32
5
11
5
14
4
205
2
132
2
64
3
70
4
38
5
71
5
85
4
250
2
123
2
9
3
8
4
251
4
92
5
164
4
82
3
143
2
240
2
230
3
234
4
128
5
251
4
169
3
172
2
203
2
163
3
181
4
98
5
17
5
234
3
185
2
146
2
88
3
119
4
68
5
77
5
71
4
219
2
126
2
47
3
85
4
72
5
126
5
134
4
18
3
105
2
232
2
241
3
247
4
106
5
174
4
74
3
103
2
192
2
219
3
54
5
47
6
30
6
25
5
34
4
58
4
40
5
137
6
195
7
247
7
213
6
142
5
233
4
251
4
119
5
237
5
204
5
183
4
68
3
190
2
91
3
99
4
57
5
118
5
149
4
39
3
118
2
245
2
247
3
3
5
114
5
177
4
75
3
106
2
178
2
165
3
179
4
77
5
223
4
144
3
138
2
163
2
134
3
154
4
78
5
24
5
236
3
183
2
130
2
82
3
103
4
57
5
68
5
71
4
242
2
138
2
59
3
72
4
47
5
126
5
171
4
78
3
171
2
43
3
36
4
27
5
142
5
222
4
138
3
171
2
245
2
226
3
234
4
136
5
34
5
226
3
216
2
240
2
213
3
239
4
170
5
127
5
115
4
74
3
11
3
197
3
218
4
178
5
193
5
202
4
120
3
10
3
179
3
195
4
173
5
254
5
50
5
211
3
46
3
176
3
179
4
183
5
52
6
146
5
59
4
90
3
162
3
151
4
166
5
65
6
218
5
142
4
110
3
115
3
61
4
54
5
218
5
154
5
100
4
34
3
208
2
126
3
130
4
67
5
48
5
27
4
156
2
28
2
179
2
178
3
148
4
226
4
12
4
175
2
246
1
94
2
85
3
96
4
226
4
66
4
234
2
2
2
65
2
56
3
73
4
229
4
134
4
77
3
46
2
70
2
26
3
47
4
240
4
213
4
189
3
136
2
78
2
20
3
38
4
243
4
10
5
30
4
208
2
90
2
247
2
255
3
230
4
50
5
98
4
6
3
87
2
213
2
208
3
209
4
78
5
176
4
103
3
134
2
192
2
183
3
190
4
92
5
247
4
168
3
128
2
130
2
83
3
98
4
34
5
14
5
250
3
182
2
105
2
36
3
64
4
8
5
16
5
16
4
184
2
62
2
227
2
228
3
206
4
34
5
87
4
14
3
75
2
191
2
193
3
166
4
44
5
151
4
70
3
83
2
96
2
70
3
76
4
237
4
147
4
88
3
58
2
51
2
8
3
18
4
203
4
191
4
186
3
123
2
48
2
228
2
246
3
202
4
226
4
234
3
141
2
10
2
166
2
176
3
163
4
16
5
81
4
2
3
87
2
203
2
192
3
187
4
58
5
196
4
134
3
136
2
170
2
147
3
161
4
70
5
250
4
198
3
177
2
174
2
123
3
130
4
59
5
38
5
32
4
243
2
171
2
99
3
110
4
72
5
123
5
155
4
74
3
180
2
80
3
90
4
76
5
186
5
3
5
182
3
9
3
123
3
128
4
136
5
11
6
124
5
58
4
83
3
126
3
102
4
104
5
8
6
186
5
132
4
102
3
91
3
40
4
48
5
232
5
222
5
197
4
136
3
56
3
223
3
216
4
164
5
202
5
227
4
142
3
254
2
146
3
142
4
100
5
215
5
11
5
180
3
243
2
88
3
74
4
75
5
203
5
56
5
238
3
247
2
20
3
241
3
246
4
146
5
70
5
14
4
228
2
202
2
142
3
148
4
75
5
55
5
38
4
219
2
127
2
55
3
90
4
100
5
223
5
87
5
80
4
226
3
122
4
125
5
158
6
131
7
61
7
254
5
38
5
35
5
98
5
203
5
226
5
43
5
206
3
191
2
206
2
163
3
158
4
57
5
235
4
183
3
141
2
99
2
37
3
38
4
239
4
239
4
238
3
178
2
81
2
254
2
2
4
212
4
2
5
26
4
197
2
38
2
175
2
171
3
155
4
3
5
74
4
250
2
47
2
130
2
100
3
91
4
218
4
92
4
22
3
32
2
66
2
46
3
75
4
251
4
200
4
155
3
110
2
72
2
12
3
22
4
215
4
222
4
222
3
147
2
46
2
214
2
230
3
191
4
2
5
51
4
227
2
82
2
238
2
245
3
237
4
95
5
170
4
83
3
137
2
224
2
216
3
235
4
131
5
24
5
230
3
234
2
8
3
239
3
254
4
171
5
126
5
98
4
59
3
25
3
229
3
236
4
179
5
186
5
193
4
122
3
24
3
192
3
203
4
168
5
230
5
19
5
187
3
26
3
154
3
141
4
115
5
218
5
32
5
194
3
230
2
32
3
247
3
232
4
102
5
229
4
158
3
146
2
150
2
80
3
87
4
241
4
182
4
142
3
88
2
43
2
234
2
234
3
170
4
178
4
180
3
111
2
13
2
186
2
198
3
160
4
219
4
10
4
181
2
40
2
171
2
144
3
118
4
232
4
69
4
248
2
46
2
123
2
103
3
106
4
253
4
144
4
91
3
98
2
114
2
82
3
90
4
6
5
231
4
215
3
167
2
126
2
63
3
74
4
18
5
33
5
42
4
226
2
114
2
22
3
31
4
252
4
62
5
110
4
34
3
138
2
23
3
254
3
211
4
70
5
166
4
90
3
140
2
212
2
180
3
182
4
63
5
208
4
155
3
149
2
159
2
120
3
127
4
49
5
11
5
238
3
194
2
147
2
96
3
97
4
35
5
50
5
62
4
243
2
132
2
39
3
40
4
6
5
73
5
123
4
50
3
157
2
31
3
15
4
254
4
119
5
222
4
146
3
194
2
7
3
232
3
234
4
114
5
22
5
210
3
184
2
183
2
147
3
160
4
74
5
39
5
24
4
229
2
177
2
111
3
119
4
67
5
88
5
98
4
24
3
162
2
61
3
56
4
22
5
87
5
142
4
58
3
148
2
10
3
249
3
222
4
83
5
178
4
108
3
147
2
211
2
185
3
187
4
75
5
240
4
198
3
193
2
196
2
155
3
162
4
72
5
40
5
19
4
226
2
171
2
104
3
102
4
42
5
75
5
102
4
25
3
155
2
46
3
46
4
1
5
84
5
149
4
74
3
152
2
24
3
0
4
237
4
108
5
225
4
144
3
176
2
242
2
209
3
194
4
110
5
24
5
231
3
221
2
215
2
168
3
173
4
72
5
32
5
15
4
209
2
131
2
54
3
61
4
4
5
36
5
59
4
236
2
108
2
1
3
244
3
208
4
34
5
93
4
40
3
134
2
220
2
188
3
179
4
45
5
168
4
103
3
132
2
184
2
187
3
236
4
204
5
214
5
32
5
72
4
81
4
28
5
46
6
87
7
193
7
233
6
165
5
12
5
28
5
117
5
188
5
161
5
175
4
88
3
200
2
83
3
56
4
12
5
87
5
136
4
52
3
119
2
216
2
192
3
178
4
41
5
176
4
125
3
137
2
185
2
163
3
165
4
68
5
239
4
200
3
173
2
155
2
100
3
100
4
19
5
4
5
252
3
182
2
120
2
44
3
41
4
241
4
32
5
77
4
253
2
130
2
22
3
16
4
236
4
77
5
156
4
88
3
154
2
232
2
200
3
187
4
49
5
176
4
118
3
136
2
174
2
142
3
148
4
44
5
242
4
212
3
196
2
191
2
140
3
149
4
86
5
69
5
89
4
33
3
197
2
101
3
103
4
53
5
100
5
137
4
56
3
181
2
74
3
60
4
36
5
145
5
221
4
153
3
231
2
80
3
60
4
51
5
176
5
52
5
249
3
8
3
49
3
22
4
32
5
196
5
131
5
97
4
69
3
47
3
241
3
252
4
167
5
149
5
133
4
55
3
204
2
104
3
91
4
28
5
68
5
71
4
244
2
88
2
215
2
180
3
132
4
224
4
36
4
212
2
13
2
82
2
52
3
46
4
176
4
56
4
254
2
0
2
34
2
3
3
1
4
161
4
107
4
80
3
54
2
26
2
228
2
237
3
175
4
176
4
174
3
102
2
16
2
188
2
199
3
148
4
198
4
230
3
141
2
245
1
117
2
100
3
76
4
178
4
8
4
192
2
246
1
63
2
53
3
51
4
180
4
60
4
11
3
9
2
32
2
3
3
5
4
172
4
125
4
93
3
53
2
15
2
208
2
208
3
155
4
164
4
165
3
98
2
244
1
144
2
154
3
112
4
180
4
237
3
152
2
241
1
115
2
95
3
84
4
199
4
32
4
213
2
7
2
77
2
52
3
58
4
200
4
93
4
37
3
31
2
48
2
10
3
12
4
169
4
134
4
101
3
74
2
25
2
205
2
204
3
151
4
157
4
168
3
95
2
236
1
148
2
156
3
116
4
192
4
243
3
156
2
228
1
111
2
100
3
92
4
215
4
56
4
233
2
15
2
81
2
56
3
67
4
217
4
116
4
61
3
44
2
53
2
18
3
28
4
204
4
171
4
144
3
93
2
45
2
236
2
248
3
195
4
212
4
222
3
150
2
25
2
182
2
186
3
152
4
236
4
33
4
198
2
24
2
143
2
135
3
140
4
7
5
92
4
16
3
47
2
102
2
80
3
94
4
244
4
148
4
98
3
63
2
64
2
34
3
53
4
238
4
215
4
188
3
129
2
68
2
252
2
13
4
227
4
4
5
28
4
198
2
65
2
220
2
221
3
190
4
20
5
74
4
213
2
45
2
162
2
152
3
142
4
18
5
121
4
40
3
58
2
100
2
76
3
94
4
0
5
172
4
119
3
97
2
97
2
55
3
53
4
239
4
230
4
212
3
140
2
69
2
253
2
36
4
37
5
149
5
20
5
38
4
220
3
142
4
151
5
140
6
76
7
23
7
252
5
44
5
94
5
180
5
244
5
5
6
52
5
212
3
224
2
252
2
208
3
207
4
93
5
4
5
206
3
166
2
142
2
90
3
97
4
21
5
7
5
241
3
172
2
91
2
21
3
40
4
13
5
56
5
84
4
241
2
100
2
4
3
15
4
244
4
84
5
151
4
57
3
116
2
226
2
209
3
212
4
98
5
216
4
141
3
151
2
188
2
156
3
179
4
92
5
24
5
241
3
204
2
188
2
146
3
165
4
110
5
107
5
88
4
4
3
175
2
93
3
118
4
90
5
140
5
168
4
71
3
172
2
64
3
82
4
68
5
181
5
3
5
165
3
220
2
65
3
54
4
88
5
0
6
112
5
32
4
35
3
56
3
28
4
55
5
236
5
182
5
145
4
97
3
72
3
32
4
52
5
8
6
18
6
8
5
180
3
87
3
4
4
24
5
253
5
56
6
88
5
245
3
89
3
216
3
218
4
198
5
46
6
111
5
252
3
17
3
91
3
60
4
52
5
183
5
37
5
200
3
171
2
164
2
110
3
113
4
5
5
188
4
130
3
86
2
44
2
231
2
228
3
174
4
187
4
176
3
97
2
5
2
176
2
197
3
175
4
236
4
8
4
161
2
245
1
124
2
134
3
124
4
238
4
70
4
233
2
13
2
106
2
88
3
100
4
255
4
132
4
72
3
67
2
92
2
49
3
71
4
244
4
196
4
159
3
108
2
65
2
11
3
37
4
228
4
243
4
236
3
156
2
50
2
218
2
236
3
215
4
41
5
76
4
230
2
47
2
173
2
181
3
172
4
36
5
119
4
22
3
52
2
133
2
113
3
128
4
32
5
173
4
108
3
105
2
116
2
76
3
96
4
16
5
222
4
186
3
125
2
74
2
30
3
44
4
244
4
5
5
4
4
176
2
62
2
230
2
241
3
227
4
44
5
93
4
3
3
72
2
192
2
193
3
188
4
56
5
163
4
76
3
76
2
152
2
128
3
140
4
47
5
191
4
124
3
111
2
110
2
70
3
91
4
12
5
229
4
206
3
151
2
104
2
45
3
61
4
14
5
35
5
36
4
200
2
86
2
248
2
5
4
237
4
63
5
109
4
19
3
88
2
213
2
210
3
200
4
78
5
179
4
89
3
114
2
183
2
157
3
168
4
71
5
229
4
164
3
147
2
142
2
108
3
130
4
52
5
16
5
247
3
196
2
136
2
64
3
69
4
24
5
54
5
60
4
236
2
111
2
12
3
20
4
3
5
84
5
129
4
42
3
114
2
232
2
239
3
238
4
120
5
224
4
134
3
148
2
214
2
188
3
204
4
119
5
24
5
220
3
195
2
185
2
145
3
163
4
84
5
48
5
28
4
223
2
152
2
83
3
86
4
37
5
71
5
78
4
248
2
119
2
16
3
33
4
19
5
113
5
161
4
51
3
109
2
221
2
222
3
214
4
93
5
199
4
104
3
120
2
175
2
166
3
228
4
210
5
216
5
4
5
32
4
37
4
0
5
43
6
76
7
192
7
255
6
184
5
76
5
115
5
196
5
15
6
235
5
222
4
117
3
226
2
88
3
92
4
59
5
140
5
188
4
93
3
146
2
248
2
239
3
232
4
108
5
225
4
143
3
170
2
219
2
166
3
180
4
99
5
25
5
238
3
205
2
176
2
132
3
166
4
100
5
81
5
62
4
236
2
156
2
90
3
104
4
64
5
111
5
132
4
44
3
164
2
53
3
64
4
66
5
158
5
225
4
142
3
197
2
37
3
37
4
36
5
180
5
42
5
208
3
204
2
243
2
204
3
216
4
135
5
56
5
14
4
242
2
220
2
185
3
230
4
164
5
148
5
149
4
78
3
4
3
198
3
212
4
184
5
241
5
12
5
177
3
43
3
188
3
196
4
193
5
41
6
120
5
32
4
78
3
174
3
174
4
180
5
76
6
209
5
129
4
136
3
173
3
148
4
168
5
86
6
16
6
222
4
175
3
134
3
79
4
93
5
20
6
4
6
241
4
137
3
28
3
187
3
173
4
116
5
160
5
168
4
56
3
145
2
0
3
252
3
230
4
62
5
124
4
32
3
68
2
160
2
151
3
144
4
20
5
157
4
81
3
76
2
102
2
69
3
88
4
11
5
205
4
169
3
123
2
85
2
28
3
50
4
244
4
244
4
239
3
166
2
64
2
243
2
4
4
223
4
35
5
56
4
222
2
66
2
196
2
196
3
187
4
44
5
125
4
42
3
84
2
164
2
150
3
148
4
44
5
179
4
105
3
100
2
127
2
93
3
110
4
38
5
240
4
204
3
160
2
113
2
56
3
82
4
21
5
36
5
39
4
210
2
105
2
23
3
36
4
0
5
65
5
92
4
1
3
98
2
230
2
236
3
230
4
77
5
164
4
82
3
108
2
185
2
170
3
172
4
81
5
235
4
152
3
128
2
143
2
106
3
128
4
51
5
1
5
228
3
182
2
125
2
64
3
69
4
31
5
46
5
58
4
220
2
116
2
32
3
32
4
12
5
91
5
127
4
32
3
125
2
245
2
245
3
243
4
112
5
196
4
125
3
156
2
232
2
210
3
212
4
116
5
19
5
212
3
200
2
222
2
180
3
212
4
123
5
65
5
36
4
247
2
193
2
132
3
145
4
88
5
108
5
125
4
44
3
184
2
91
3
100
4
68
5
147
5
191
4
100
3
190
2
52
3
45
4
39
5
150
5
240
4
166
3
197
2
12
3
243
3
241
4
140
5
38
5
241
3
229
2
234
2
190
3
204
4
127
5
88
5
68
4
43
3
232
2
164
3
183
4
124
5
152
5
175
4
104
3
250
2
154
3
165
4
136
5
212
5
10
5
171
3
211
2
95
3
79
4
46
5
166
5
22
5
190
3
212
2
22
3
232
3
240
4
140
5
42
5
238
3
234
2
247
2
216
3
231
4
165
5
118
5
107
4
66
3
22
3
216
3
218
4
162
5
189
5
202
4
102
3
248
2
148
3
144
4
128
5
236
5
110
5
143
4
94
4
36
5
52
6
39
7
178
7
131
7
220
6
70
6
120
6
41
7
130
7
73
7
65
6
186
4
148
3
135
3
72
4
58
5
220
5
178
5
154
4
91
3
12
3
175
3
161
4
94
5
108
5
122
4
34
3
164
2
51
3
40
4
8
5
103
5
160
4
78
3
157
2
20
3
4
4
237
4
96
5
207
4
143
3
174
2
234
2
207
3
206
4
99
5
12
5
232
3
226
2
217
2
160
3
154
4
76
5
49
5
42
4
243
2
168
2
89
3
81
4
24
5
52
5
76
4
248
2
120
2
13
3
4
4
226
4
60
5
136
4
54
3
119
2
222
2
204
3
192
4
64
5
186
4
129
3
160
2
214
2
185
3
204
4
109
5
36
5
248
3
234
2
229
2
174
3
180
4
113
5
100
5
107
4
57
3
244
2
170
3
180
4
138
5
184
5
222
4
156
3
38
3
192
3
188
4
161
5
0
6
86
5
32
4
100
3
180
3
156
4
140
5
6
6
116
5
44
4
46
3
74
3
23
4
12
5
164
5
64
5
2
4
207
2
163
2
86
3
72
4
249
4
228
4
213
3
133
2
40
2
218
2
207
3
146
4
184
4
220
3
142
2
2
2
147
2
142
3
132
4
231
4
58
4
240
2
48
2
120
2
130
3
129
4
6
5
126
4
58
3
70
2
104
2
72
3
80
4
243
4
182
4
156
3
132
2
107
2
44
3
54
4
242
4
230
4
232
3
165
2
76
2
246
2
252
3
216
4
15
5
54
4
236
2
92
2
225
2
222
3
200
4
47
5
128
4
52
3
96
2
170
2
154
3
151
4
34
5
166
4
94
3
94
2
114
2
91
3
92
4
242
4
177
4
142
3
106
2
69
2
8
3
12
4
205
4
206
4
207
3
137
2
40
2
204
2
212
3
176
4
242
4
32
4
198
2
30
2
160
2
162
3
153
4
16
5
104
4
22
3
58
2
124
2
96
3
94
4
240
4
128
4
61
3
50
2
72
2
35
3
40
4
204
4
164
4
134
3
92
2
49
2
244
2
2
4
199
4
217
4
238
3
165
2
37
2
216
2
214
3
178
4
248
4
37
4
212
2
56
2
180
2
164
3
140
4
252
4
94
4
26
3
77
2
152
2
128
3
125
4
10
5
158
4
107
3
116
2
139
2
95
3
94
4
8
5
222
4
200
3
162
2
113
2
46
3
44
4
239
4
248
4
12
4
199
2
90
2
254
2
255
3
230
4
50
5
84
4
4
3
94
2
208
2
192
3
171
4
29
5
128
4
62
3
114
2
186
2
166
3
159
4
50
5
209
4
161
3
158
2
168
2
119
3
118
4
33
5
4
5
238
3
194
2
137
2
60
3
54
4
240
4
252
4
6
4
181
2
66
2
212
2
201
3
156
4
223
4
16
4
192
2
24
2
141
2
118
3
94
4
204
4
44
4
232
2
16
2
78
2
42
3
48
4
184
4
69
4
4
3
250
1
242
1
188
2
212
3
171
4
214
4
40
4
92
3
103
3
64
4
76
5
60
6
214
6
116
6
115
5
2
5
100
5
180
5
214
5
149
5
138
4
28
3
96
2
189
2
158
3
123
4
224
4
60
4
244
2
15
2
66
2
26
3
23
4
172
4
88
4
48
3
40
2
36
2
254
2
236
3
152
4
127
4
128
3
86
2
31
2
220
2
223
3
164
4
172
4
196
3
126
2
4
2
158
2
158
3
130
4
218
4
27
4
208
2
34
2
142
2
144
3
136
4
4
5
114
4
58
3
97
2
150
2
116
3
117
4
8
5
179
4
135
3
122
2
106
2
47
3
48
4
226
4
207
4
204
3
152
2
91
2
22
3
30
4
242
4
32
5
76
4
11
3
148
2
46
3
41
4
18
5
110
5
192
4
128
3
212
2
62
3
41
4
30
5
164
5
36
5
239
3
22
3
94
3
74
4
77
5
218
5
143
5
113
4
104
3
88
3
39
4
50
5
221
5
224
5
224
4
164
3
80
3
252
3
246
4
186
5
218
5
242
4
143
3
239
2
104
3
76
4
26
5
99
5
154
4
60
3
116
2
196
2
149
3
110
4
233
4
92
4
25
3
53
2
80
2
46
3
37
4
188
4
111
4
78
3
54
2
36
2
237
2
252
3
194
4
186
4
184
3
118
2
29
2
214
2
216
3
164
4
198
4
252
3
176
2
38
2
174
2
166
3
140
4
241
4
65
4
250
2
54
2
144
2
118
3
120
4
11
5
138
4
74
3
81
2
102
2
66
3
82
4
246
4
192
4
159
3
124
2
90
2
45
3
40
4
238
4
246
4
252
3
184
2
93
2
6
3
16
4
233
4
32
5
74
4
245
2
94
2
244
2
231
3
202
4
24
5
112
4
33
3
86
2
166
2
142
3
142
4
32
5
178
4
124
3
119
2
138
2
102
3
114
4
32
5
233
4
208
3
164
2
111
2
44
3
50
4
254
4
6
5
8
4
188
2
84
2
248
2
254
3
229
4
48
5
98
4
254
2
72
2
192
2
188
3
190
4
64
5
161
4
68
3
88
2
151
2
138
3
153
4
65
5
224
4
170
3
144
2
128
2
82
3
105
4
44
5
8
5
237
3
170
2
100
2
29
3
42
4
26
5
55
5
56
4
212
2
81
2
240
2
0
4
247
4
82
5
143
4
28
3
90
2
202
2
207
3
220
4
104
5
192
4
98
3
102
2
153
2
132
3
156
4
72
5
240
4
169
3
142
2
136
2
100
3
122
4
72
5
52
5
24
4
206
2
122
2
44
3
62
4
34
5
77
5
84
4
234
2
87
2
242
2
4
4
1
5
102
5
158
4
57
3
110
2
220
2
224
3
234
4
136
5
244
4
146
3
143
2
185
2
162
3
184
4
108
5
22
5
210
3
158
2
132
2
90
3
122
4
70
5
54
5
25
4
196
2
110
2
38
3
68
4
44
5
100
5
120
4
0
3
89
2
232
2
252
3
246
4
94
5
159
4
55
3
101
2
198
2
197
3
202
4
88
5
206
4
144
3
206
2
68
3
138
4
239
5
196
6
126
6
72
5
80
4
190
4
8
6
65
7
6
8
147
7
229
5
230
3
40
3
186
3
196
4
160
5
197
5
208
4
89
3
180
2
54
3
54
4
29
5
124
5
200
4
102
3
140
2
222
2
218
3
220
4
107
5
222
4
132
3
126
2
163
2
142
3
170
4
97
5
21
5
222
3
172
2
142
2
100
3
124
4
70
5
66
5
44
4
216
2
122
2
52
3
78
4
59
5
112
5
138
4
34
3
141
2
30
3
44
4
21
5
148
5
216
4
115
3
152
2
238
2
225
3
234
4
142
5
7
5
170
3
155
2
189
2
170
3
202
4
132
5
70
5
26
4
240
2
214
2
178
3
209
4
164
5
171
5
167
4
92
3
4
3
189
3
200
4
178
5
237
5
16
5
172
3
21
3
168
3
177
4
167
5
16
6
90
5
5
4
57
3
148
3
139
4
140
5
34
6
164
5
101
4
102
3
113
3
98
4
106
5
18
6
202
5
160
4
116
3
68
3
255
3
252
4
168
5
152
5
130
4
36
3
182
2
79
3
66
4
12
5
52
5
72
4
227
2
67
2
196
2
184
3
156
4
0
5
76
4
243
2
34
2
114
2
93
3
90
4
218
4
110
4
46
3
56
2
81
2
44
3
56
4
227
4
164
4
132
3
93
2
56
2
4
3
10
4
206
4
207
4
209
3
136
2
40
2
209
2
216
3
182
4
244
4
28
4
193
2
35
2
172
2
172
3
158
4
12
5
93
4
9
3
56
2
134
2
116
3
114
4
3
5
149
4
88
3
98
2
113
2
78
3
90
4
10
5
214
4
184
3
139
2
96
2
40
3
50
4
242
4
250
4
253
3
180
2
76
2
239
2
248
3
219
4
28
5
70
4
248
2
89
2
206
2
188
3
173
4
26
5
120
4
43
3
92
2
162
2
135
3
138
4
36
5
186
4
124
3
120
2
125
2
86
3
92
4
12
5
224
4
197
3
151
2
98
2
38
3
42
4
242
4
4
5
21
4
196
2
84
2
241
2
244
3
219
4
33
5
78
4
252
2
85
2
204
2
202
3
188
4
52
5
150
4
78
3
110
2
180
2
156
3
164
4
72
5
223
4
160
3
152
2
157
2
112
3
121
4
46
5
6
5
242
3
196
2
130
2
72
3
75
4
22
5
44
5
64
4
246
2
134
2
37
3
40
4
12
5
81
5
133
4
50
3
133
2
252
2
246
3
232
4
86
5
190
4
121
3
158
2
222
2
196
3
208
4
110
5
16
5
220
3
207
2
210
2
168
3
180
4
112
5
86
5
72
4
24
3
216
2
155
3
164
4
116
5
152
5
180
4
98
3
239
2
152
3
172
4
144
5
219
5
12
5
171
3
244
2
96
3
74
4
64
5
196
5
30
5
193
3
216
2
12
3
244
3
254
4
144
5
38
5
250
3
233
2
227
2
180
3
184
4
100
5
63
5
45
4
244
2
176
2
116
3
131
4
76
5
112
5
135
4
40
3
164
2
57
3
46
4
28
5
122
5
200
4
159
3
55
3
9
4
100
5
175
6
80
7
212
6
175
5
40
5
236
5
32
7
20
8
136
8
171
7
188
5
5
4
162
3
72
4
64
5
231
5
181
5
150
4
87
3
1
3
160
3
143
4
80
5
113
5
155
4
71
3
193
2
83
3
84
4
65
5
167
5
229
4
156
3
230
2
74
3
49
4
33
5
158
5
16
5
198
3
209
2
245
2
215
3
209
4
108
5
33
5
248
3
228
2
211
2
140
3
156
4
87
5
77
5
79
4
23
3
189
2
109
3
122
4
72
5
110
5
146
4
56
3
174
2
57
3
41
4
8
5
99
5
172
4
100
3
175
2
14
3
15
4
26
5
156
5
20
5
219
3
244
2
29
3
2
4
8
5
180
5
119
5
94
4
76
3
61
3
1
4
12
5
190
5
182
5
180
4
124
3
44
3
228
3
241
4
190
5
232
5
13
5
185
3
37
3
175
3
161
4
137
5
235
5
60
5
238
3
47
3
144
3
120
4
118
5
4
6
120
5
59
4
56
3
73
3
17
4
1
5
152
5
83
5
44
4
244
2
183
2
97
3
84
4
255
4
229
4
216
3
143
2
41
2
207
2
199
3
142
4
188
4
222
3
145
2
0
2
130
2
112
3
92
4
197
4
28
4
208
2
14
2
92
2
76
3
75
4
223
4
120
4
59
3
52
2
72
2
45
3
72
4
240
4
182
4
140
3
88
2
39
2
236
2
246
3
203
4
205
4
206
3
121
2
5
2
176
2
187
3
150
4
232
4
29
4
177
2
240
1
106
2
96
3
110
4
239
4
80
4
245
2
15
2
68
2
52
3
75
4
232
4
125
4
53
3
24
2
28
2
7
3
16
4
180
4
122
4
84
3
28
2
235
1
166
2
188
3
149
4
156
4
148
3
66
2
205
1
121
2
126
3
95
4
136
4
181
3
84
2
168
1
42
2
33
3
24
4
155
4
248
3
164
2
207
1
8
2
237
2
245
3
133
4
28
4
224
2
204
1
209
1
175
2
196
3
132
4
103
4
84
3
42
2
1
2
201
2
224
3
187
4
208
4
229
3
170
2
46
2
196
2
195
3
169
4
4
5
59
4
229
2
47
2
167
2
164
3
168
4
71
5
156
4
72
3
91
2
140
2
128
3
135
4
44
5
208
4
147
3
112
2
97
2
55
3
72
4
6
5
243
4
212
3
148
2
75
2
0
3
12
4
235
4
13
5
31
4
201
2
61
2
214
2
225
3
200
4
44
5
106
4
1
3
56
2
166
2
148
3
148
4
33
5
136
4
54
3
79
2
124
2
93
3
107
4
17
5
192
4
146
3
109
2
72
2
27
3
38
4
236
4
226
4
201
3
128
2
39
2
213
2
234
3
199
4
228
4
232
3
128
2
229
1
120
2
135
3
127
4
232
4
42
4
190
2
236
1
73
2
60
3
69
4
224
4
77
4
242
2
239
1
14
2
241
2
11
4
180
4
105
4
59
3
25
2
30
2
42
3
152
4
196
5
32
6
52
5
248
3
163
3
132
4
26
6
107
7
188
7
206
6
20
5
190
3
148
3
47
4
252
4
85
5
135
4
20
3
52
2
137
2
110
3
110
4
254
4
108
4
24
3
26
2
62
2
36
3
65
4
244
4
184
4
135
3
84
2
52
2
9
3
31
4
232
4
235
4
223
3
148
2
51
2
221
2
229
3
195
4
233
4
1
4
161
2
6
2
153
2
160
3
144
4
239
4
65
4
240
2
33
2
111
2
92
3
104
4
251
4
124
4
60
3
78
2
106
2
73
3
86
4
249
4
184
4
149
3
112
2
81
2
27
3
40
4
229
4
238
4
236
3
172
2
96
2
8
3
20
4
243
4
44
5
88
4
19
3
136
2
24
3
42
4
24
5
136
5
227
4
149
3
212
2
53
3
33
4
28
5
181
5
80
5
17
4
11
3
32
3
5
4
26
5
191
5
140
5
118
4
78
3
49
3
255
3
5
5
196
5
207
5
209
4
141
3
37
3
188
3
174
4
126
5
157
5
176
4
70
3
138
2
248
2
231
3
204
4
48
5
126
4
24
3
56
2
122
2
85
3
84
4
230
4
108
4
29
3
21
2
29
2
249
2
19
4
204
4
165
4
131
3
66
2
246
1
210
2
252
3
220
4
242
4
213
3
132
2
14
2
172
2
185
3
183
4
12
5
56
4
206
2
5
2
132
2
139
3
141
4
25
5
119
4
20
3
30
2
96
2
81
3
116
4
37
5
196
4
118
3
87
2
70
2
28
3
47
4
5
5
237
4
207
3
127
2
50
2
247
2
12
4
244
4
32
5
28
4
188
2
59
2
213
2
230
3
219
4
44
5
88
4
251
2
68
2
188
2
205
3
197
4
53
5
147
4
55
3
86
2
151
2
132
3
150
4
66
5
220
4
145
3
123
2
120
2
84
3
106
4
29
5
0
5
237
3
169
2
100
2
38
3
44
4
0
5
25
5
29
4
200
2
87
2
240
2
240
3
215
4
44
5
84
4
253
2
70
2
196
2
199
3
182
4
36
5
142
4
54
3
80
2
140
2
109
3
120
4
39
5
204
4
143
3
111
2
113
2
70
3
85
4
16
5
252
4
234
3
158
2
76
2
17
3
36
4
12
5
66
5
76
4
221
2
75
2
225
2
237
3
243
4
92
5
133
4
37
3
73
2
180
2
181
3
196
4
92
5
211
4
108
3
112
2
143
2
105
3
133
4
71
5
253
4
188
3
137
2
100
2
53
3
94
4
56
5
52
5
27
4
184
2
77
2
7
3
17
4
20
5
79
5
93
4
240
2
85
2
218
2
236
3
243
4
101
5
172
4
67
3
105
2
196
2
202
3
216
4
120
5
251
4
164
3
132
2
167
2
141
3
174
4
111
5
41
5
228
3
165
2
117
2
60
3
91
4
53
5
44
5
34
4
196
2
88
2
15
3
33
4
30
5
90
5
97
4
236
2
75
2
208
2
228
3
239
4
92
5
158
4
57
3
85
2
172
2
160
3
161
4
68
5
186
4
133
3
177
2
33
3
94
4
204
5
175
6
124
6
76
5
65
4
140
4
220
5
51
7
254
7
232
7
79
6
63
4
77
3
198
3
166
4
120
5
166
5
172
4
64
3
164
2
36
3
25
4
7
5
108
5
168
4
79
3
124
2
213
2
209
3
212
4
108
5
234
4
156
3
148
2
185
2
153
3
172
4
99
5
32
5
241
3
199
2
166
2
120
3
127
4
48
5
36
5
50
4
228
2
129
2
58
3
68
4
46
5
117
5
144
4
45
3
146
2
21
3
32
4
39
5
156
5
236
4
143
3
169
2
241
2
247
3
1
5
164
5
58
5
228
3
213
2
237
2
204
3
236
4
177
5
125
5
86
4
39
3
253
2
204
3
235
4
188
5
208
5
211
4
141
3
20
3
203
3
212
4
182
5
251
5
30
5
197
3
47
3
180
3
184
4
186
5
44
6
128
5
46
4
81
3
168
3
157
4
157
5
56
6
209
5
137
4
136
3
158
3
118
4
132
5
51
6
246
5
208
4
160
3
96
3
29
4
39
5
209
5
212
5
195
4
89
3
220
2
117
3
100
4
46
5
103
5
117
4
20
3
106
2
221
2
208
3
183
4
29
5
113
4
35
3
69
2
148
2
126
3
124
4
14
5
155
4
85
3
104
2
118
2
68
3
72
4
253
4
206
4
180
3
143
2
94
2
36
3
55
4
245
4
4
5
13
4
192
2
82
2
251
2
248
3
216
4
37
5
80
4
248
2
85
2
208
2
196
3
179
4
29
5
124
4
47
3
85
2
157
2
139
3
140
4
36
5
195
4
140
3
140
2
165
2
124
3
148
4
74
5
28
5
8
4
229
2
180
2
120
3
134
4
69
5
84
5
103
4
48
3
184
2
71
3
52
4
14
5
83
5
129
4
56
3
155
2
16
3
254
3
237
4
88
5
188
4
123
3
172
2
248
2
215
3
197
4
73
5
230
4
173
3
174
2
179
2
125
3
116
4
30
5
248
4
228
3
199
2
156
2
92
3
107
4
46
5
60
5
79
4
37
3
192
2
94
3
68
4
24
5
98
5
140
4
52
3
150
2
8
3
248
3
229
4
84
5
196
4
134
3
184
2
252
2
227
3
206
4
88
5
243
4
191
3
192
2
198
2
144
3
149
4
79
5
52
5
36
4
254
2
189
2
120
3
126
4
54
5
76
5
102
4
28
3
169
2
71
3
60
4
20
5
103
5
153
4
85
3
175
2
25
3
12
4
243
4
96
5
204
4
143
3
166
2
228
2
195
3
181
4
72
5
235
4
190
3
192
2
183
2
129
3
140
4
51
5
16
5
8
4
229
2
166
2
101
3
99
4
24
5
52
5
78
4
4
3
140
2
36
3
32
4
12
5
88
5
149
4
76
3
135
2
234
2
224
3
196
4
55
5
165
4
99
3
128
2
186
2
155
3
143
4
33
5
194
4
156
3
146
2
133
2
81
3
80
4
5
5
246
4
225
3
170
2
92
2
8
3
15
4
220
4
0
5
31
4
208
2
77
2
1
3
45
4
108
5
55
6
233
5
217
4
54
4
156
4
141
5
255
6
5
8
175
7
102
6
21
5
140
4
181
4
40
5
141
5
55
5
254
3
216
2
185
2
103
3
116
4
37
5
5
5
236
3
160
2
54
2
212
2
211
3
152
4
196
4
224
3
132
2
248
1
131
2
117
3
104
4
202
4
17
4
196
2
7
2
93
2
68
3
58
4
184
4
53
4
246
2
252
1
29
2
2
3
9
4
176
4
109
4
68
3
44
2
22
2
218
2
229
3
171
4
161
4
168
3
105
2
10
2
188
2
190
3
140
4
188
4
224
3
137
2
248
1
131
2
119
3
102
4
215
4
37
4
220
2
36
2
125
2
104
3
107
4
249
4
145
4
101
3
104
2
121
2
87
3
93
4
8
5
210
4
180
3
150
2
125
2
62
3
73
4
19
5
20
5
28
4
225
2
132
2
49
3
64
4
40
5
93
5
142
4
63
3
168
2
54
3
47
4
29
5
139
5
221
4
148
3
206
2
30
3
248
3
242
4
112
5
236
4
166
3
140
2
144
2
89
3
56
4
220
4
147
4
95
3
40
2
233
1
150
2
148
3
75
4
70
4
72
3
249
1
146
1
56
2
60
3
8
4
68
4
125
3
40
2
136
1
18
2
12
3
253
3
119
4
205
3
133
2
182
1
252
1
218
2
197
3
104
4
0
4
210
2
206
1
225
1
193
2
204
3
128
4
83
4
48
3
244
1
192
1
117
2
132
3
83
4
112
4
124
3
44
2
180
1
84
2
96
3
68
4
144
4
199
3
113
2
204
1
79
2
64
3
56
4
183
4
21
4
206
2
245
1
46
2
20
3
32
4
180
4
78
4
26
3
12
2
13
2
231
2
240
3
164
4
130
4
100
3
46
2
250
1
177
2
192
3
146
4
172
4
184
3
103
2
240
1
148
2
151
3
117
4
198
4
252
3
176
2
4
2
110
2
86
3
77
4
206
4
49
4
236
2
15
2
76
2
48
3
59
4
222
4
132
4
78
3
60
2
56
2
15
3
28
4
206
4
183
4
156
3
96
2
34
2
221
2
233
3
192
4
220
4
236
3
155
2
29
2
184
2
190
3
164
4
248
4
55
4
220
2
37
2
151
2
136
3
116
4
5
5
108
4
44
3
73
2
140
2
101
3
101
4
248
4
168
4
123
3
109
2
110
2
63
3
68
4
248
4
229
4
214
3
157
2
90
2
13
3
28
4
243
4
16
5
40
4
218
2
72
2
236
2
239
3
212
4
52
5
117
4
28
3
95
2
202
2
176
3
166
4
43
5
156
4
88
3
113
2
153
2
132
3
154
4
52
5
228
4
189
3
160
2
156
2
115
3
118
4
44
5
27
5
12
4
218
2
155
2
68
3
56
4
5
5
44
5
68
4
225
2
100
2
244
2
245
3
212
4
52
5
123
4
36
3
97
2
203
2
180
3
176
4
57
5
176
4
116
3
130
2
166
2
125
3
149
4
56
5
244
4
211
3
188
2
173
2
129
3
124
4
79
5
79
5
84
4
53
3
47
3
60
4
164
5
175
6
252
6
46
6
243
4
196
4
212
5
33
7
8
8
76
8
5
7
244
4
148
3
173
3
129
4
105
5
235
5
86
5
1
4
251
2
12
3
216
3
226
4
113
5
56
5
7
4
214
2
177
2
127
3
134
4
68
5
67
5
60
4
241
2
154
2
72
3
84
4
51
5
97
5
130
4
37
3
126
2
0
3
231
3
224
4
76
5
155
4
63
3
112
2
209
2
191
3
208
4
103
5
222
4
164
3
156
2
180
2
144
3
163
4
76
5
16
5
231
3
176
2
140
2
83
3
89
4
32
5
47
5
38
4
220
2
119
2
29
3
52
4
32
5
93
5
136
4
58
3
153
2
36
3
49
4
44
5
168
5
11
5
191
3
239
2
71
3
57
4
72
5
234
5
132
5
73
4
75
3
84
3
44
4
54
5
228
5
182
5
164
4
108
3
53
3
253
3
14
5
220
5
243
5
244
4
164
3
62
3
221
3
232
4
203
5
13
6
52
5
214
3
36
3
154
3
135
4
108
5
208
5
27
5
180
3
200
2
254
2
214
3
208
4
93
5
217
4
140
3
114
2
109
2
56
3
70
4
237
4
192
4
161
3
102
2
49
2
247
2
0
4
216
4
241
4
231
3
142
2
34
2
196
2
205
3
178
4
248
4
40
4
215
2
40
2
160
2
154
3
140
4
12
5
102
4
20
3
54
2
135
2
106
3
110
4
7
5
152
4
96
3
93
2
95
2
56
3
69
4
244
4
208
4
186
3
129
2
76
2
20
3
28
4
214
4
226
4
236
3
156
2
39
2
193
2
198
3
177
4
252
4
49
4
215
2
31
2
145
2
135
3
120
4
252
4
94
4
9
3
29
2
91
2
69
3
68
4
227
4
124
4
60
3
41
2
33
2
252
2
7
4
189
4
164
4
143
3
80
2
12
2
203
2
213
3
168
4
206
4
217
3
141
2
33
2
204
2
205
3
166
4
236
4
34
4
181
2
6
2
113
2
106
3
112
4
248
4
107
4
33
3
60
2
117
2
84
3
92
4
3
5
164
4
113
3
94
2
81
2
40
3
66
4
253
4
232
4
211
3
142
2
72
2
3
3
17
4
232
4
18
5
30
4
196
2
67
2
213
2
225
3
209
4
41
5
96
4
4
3
63
2
172
2
180
3
180
4
52
5
157
4
78
3
76
2
145
2
111
3
128
4
39
5
212
4
164
3
141
2
124
2
78
3
96
4
28
5
8
5
6
4
199
2
124
2
53
3
64
4
21
5
69
5
81
4
244
2
103
2
242
2
252
3
239
4
77
5
148
4
69
3
127
2
228
2
209
3
201
4
88
5
211
4
136
3
149
2
199
2
160
3
172
4
78
5
4
5
216
3
185
2
157
2
104
3
115
4
40
5
28
5
15
4
192
2
104
2
28
3
29
4
240
4
32
5
54
4
221
2
82
2
224
2
230
3
211
4
33
5
100
4
18
3
73
2
169
2
155
3
148
4
36
5
166
4
84
3
86
2
119
2
84
3
102
4
47
5
28
5
70
4
127
3
177
3
180
4
227
5
176
6
223
6
97
6
157
5
132
5
51
6
252
6
56
7
192
6
88
5
193
3
22
3
140
3
132
4
102
5
189
5
252
4
160
3
190
2
252
2
239
3
240
4
132
5
247
4
159
3
165
2
209
2
172
3
184
4
99
5
40
5
4
4
215
2
173
2
111
3
125
4
60
5
64
5
63
4
238
2
140
2
52
3
49
4
14
5
71
5
104
4
16
3
130
2
13
3
20
4
13
5
124
5
204
4
129
3
180
2
20
3
3
4
0
5
144
5
35
5
216
3
213
2
246
2
209
3
217
4
127
5
63
5
48
4
253
2
208
2
156
3
175
4
116
5
120
5
135
4
61
3
220
2
146
3
156
4
128
5
195
5
240
4
153
3
6
3
132
3
141
4
143
5
252
5
80
5
10
4
57
3
148
3
131
4
133
5
30
6
183
5
120
4
120
3
142
3
101
4
117
5
39
6
244
5
228
4
191
3
148
3
84
4
96
5
46
6
52
6
43
5
201
3
80
3
230
3
208
4
156
5
215
5
225
4
140
3
212
2
53
3
24
4
243
4
84
5
164
4
86
3
118
2
189
2
157
3
142
4
28
5
179
4
117
3
105
2
116
2
71
3
78
4
3
5
216
4
197
3
162
2
108
2
44
3
51
4
252
4
4
5
22
4
205
2
101
2
255
2
252
3
228
4
55
5
94
4
5
3
113
2
225
2
212
3
197
4
54
5
160
4
94
3
132
2
201
2
175
3
184
4
65
5
224
4
164
3
156
2
158
2
110
3
117
4
37
5
248
4
230
3
187
2
129
2
68
3
90
4
36
5
52
5
75
4
4
3
157
2
71
3
77
4
44
5
123
5
172
4
92
3
174
2
28
3
17
4
11
5
132
5
238
4
171
3
198
2
1
3
235
3
236
4
140
5
64
5
12
4
236
2
223
2
172
3
172
4
97
5
56
5
44
4
250
2
180
2
104
3
113
4
60
5
88
5
115
4
20
3
169
2
71
3
63
4
28
5
111
5
165
4
68
3
165
2
20
3
20
4
243
4
112
5
228
4
162
3
178
2
236
2
205
3
201
4
108
5
21
5
225
3
212
2
211
2
153
3
164
4
90
5
68
5
60
4
7
3
189
2
88
3
110
4
56
5
112
5
145
4
56
3
180
2
78
3
65
4
40
5
127
5
181
4
104
3
179
2
23
3
253
3
239
4
100
5
205
4
143
3
172
2
224
2
187
3
176
4
68
5
243
4
196
3
172
2
161
2
100
3
101
4
35
5
20
5
20
4
230
2
164
2
81
3
87
4
36
5
69
5
103
4
29
3
172
2
64
3
49
4
18
5
112
5
175
4
106
3
169
2
7
3
230
3
205
4
78
5
205
4
140
3
149
2
169
2
125
3
130
4
23
5
204
4
171
3
146
2
100
2
75
3
78
4
247
4
240
4
241
3
188
2
112
2
33
3
23
4
227
4
4
5
42
4
228
2
124
2
59
3
132
4
207
5
155
6
62
6
24
5
127
4
233
4
14
6
141
7
96
8
228
7
155
6
16
5
116
4
173
4
72
5
209
5
143
5
100
4
76
3
43
3
217
3
197
4
119
5
100
5
78
4
2
3
152
2
68
3
49
4
236
4
16
5
55
4
232
2
100
2
235
2
190
3
172
4
7
5
76
4
1
3
73
2
164
2
126
3
107
4
228
4
101
4
46
3
54
2
80
2
34
3
21
4
180
4
114
4
85
3
65
2
46
2
236
2
232
3
163
4
164
4
176
3
125
2
44
2
200
2
192
3
152
4
204
4
242
3
156
2
14
2
147
2
126
3
96
4
203
4
36
4
236
2
51
2
137
2
116
3
115
4
244
4
148
4
107
3
119
2
149
2
117
3
129
4
40
5
246
4
228
3
184
2
146
2
70
3
68
4
3
5
13
5
28
4
229
2
132
2
38
3
26
4
228
4
30
5
79
4
9
3
133
2
17
3
246
3
209
4
70
5
172
4
112
3
169
2
236
2
192
3
174
4
32
5
160
4
94
3
87
2
81
2
27
3
12
4
168
4
109
4
70
3
17
2
215
1
132
2
124
3
51
4
44
4
44
3
231
1
112
1
4
2
3
3
209
3
20
4
77
3
252
1
101
1
230
1
212
2
173
3
37
4
121
3
48
2
93
1
157
1
132
2
135
3
40
4
213
3
171
2
148
1
157
1
126
2
118
3
53
4
27
4
14
3
237
1
191
1
117
2
128
3
71
4
93
4
116
3
51
2
194
1
93
2
96
3
54
4
128
4
189
3
120
2
222
1
82
2
60
3
36
4
159
4
12
4
212
2
9
2
72
2
36
3
39
4
184
4
88
4
47
3
42
2
52
2
2
3
241
3
148
4
107
4
92
3
57
2
3
2
176
2
176
3
135
4
152
4
166
3
101
2
252
1
158
2
162
3
124
4
208
4
32
4
221
2
76
2
201
2
180
3
152
4
15
5
120
4
64
3
118
2
172
2
112
3
122
4
0
5
156
4
123
3
121
2
128
2
83
3
81
4
252
4
218
4
220
3
196
2
154
2
77
3
72
4
11
5
36
5
73
4
25
3
184
2
76
3
55
4
8
5
88
5
167
4
108
3
208
2
82
3
53
4
32
5
151
5
16
5
236
3
44
3
110
3
84
4
79
5
223
5
136
5
113
4
121
3
136
3
95
4
88
5
252
5
224
5
212
4
176
3
111
3
36
4
24
5
213
5
245
5
9
5
214
3
105
3
12
4
6
5
208
5
20
6
96
5
8
4
93
3
197
3
164
4
128
5
247
5
100
5
61
4
114
3
148
3
84
4
54
5
193
5
108
5
79
4
73
3
61
3
253
3
240
4
152
5
131
5
125
4
84
3
11
3
169
3
148
4
85
5
100
5
125
4
59
3
176
2
60
3
43
4
245
4
73
5
154
4
94
3
182
2
30
3
252
3
232
4
102
5
220
4
168
3
201
2
236
2
188
3
183
4
68
5
24
5
54
4
118
3
200
3
239
4
24
6
206
6
179
6
204
5
8
5
70
5
44
6
24
7
181
7
48
7
158
5
215
3
20
3
130
3
105
4
49
5
128
5
199
4
124
3
188
2
13
3
220
3
186
4
45
5
157
4
97
3
111
2
135
2
64
3
66
4
212
4
145
4
117
3
96
2
81
2
30
3
39
4
245
4
10
5
37
4
244
2
169
2
69
3
64
4
7
5
38
5
64
4
227
2
57
2
172
2
162
3
136
4
244
4
71
4
244
2
45
2
128
2
104
3
104
4
6
5
136
4
57
3
46
2
58
2
20
3
33
4
200
4
142
4
99
3
45
2
253
1
192
2
196
3
141
4
150
4
148
3
68
2
230
1
145
2
164
3
147
4
220
4
16
4
192
2
29
2
159
2
167
3
160
4
32
5
126
4
36
3
84
2
169
2
156
3
164
4
67
5
222
4
158
3
154
2
159
2
125
3
160
4
95
5
48
5
1
4
198
2
142
2
90
3
96
4
52
5
79
5
84
4
244
2
122
2
21
3
28
4
2
5
63
5
94
4
250
2
57
2
160
2
143
3
124
4
248
4
81
4
228
2
244
1
43
2
16
3
36
4
206
4
108
4
37
3
19
2
20
2
238
2
19
4
209
4
172
4
151
3
71
2
8
2
207
2
225
3
192
4
218
4
221
3
126
2
0
2
152
2
159
3
146
4
228
4
24
4
187
2
7
2
116
2
103
3
105
4
240
4
91
4
252
2
20
2
78
2
50
3
60
4
231
4
129
4
57
3
30
2
12
2
229
2
5
4
197
4
174
4
151
3
84
2
12
2
205
2
228
3
196
4
239
4
248
3
150
2
23
2
174
2
188
3
181
4
12
5
64
4
215
2
17
2
117
2
114
3
113
4
248
4
98
4
5
3
15
2
69
2
33
3
48
4
227
4
140
4
97
3
59
2
45
2
9
3
39
4
232
4
216
4
199
3
124
2
48
2
242
2
8
4
238
4
37
5
49
4
216
2
90
2
248
2
8
4
7
5
92
5
176
4
91
3
153
2
4
3
7
4
13
5
164
5
32
5
202
3
221
2
15
3
249
3
20
5
199
5
126
5
72
4
39
3
20
3
232
3
253
4
185
5
168
5
155
4
70
3
239
2
166
3
180
4
148
5
194
5
213
4
117
3
231
2
120
3
124
4
115
5
216
5
30
5
196
3
253
2
100
3
91
4
84
5
228
5
99
5
20
4
30
3
71
3
44
4
56
5
225
5
144
5
93
4
67
3
37
3
248
3
10
5
201
5
192
5
194
4
119
3
44
3
222
3
236
4
212
5
15
6
52
5
230
3
103
3
246
3
252
4
241
5
72
6
140
5
51
4
100
3
182
3
163
4
145
5
8
6
119
5
36
4
44
3
82
3
36
4
20
5
181
5
100
5
56
4
35
3
1
3
188
3
199
4
124
5
112
5
110
4
38
3
213
2
134
3
136
4
104
5
150
5
172
4
100
3
235
2
158
3
224
4
43
6
240
6
156
6
131
5
204
4
52
5
87
6
208
7
212
8
129
8
52
7
228
5
69
5
86
5
212
5
64
6
221
5
164
4
142
3
97
3
24
4
15
5
193
5
184
5
170
4
116
3
16
3
183
3
173
4
132
5
195
5
236
4
173
3
61
3
198
3
181
4
151
5
240
5
64
5
7
4
69
3
152
3
113
4
78
5
197
5
65
5
246
3
12
3
46
3
1
4
252
4
159
5
84
5
48
4
35
3
12
3
212
3
211
4
128
5
126
5
151
4
112
3
36
3
211
3
192
4
140
5
183
5
228
4
156
3
7
3
156
3
156
4
135
5
236
5
72
5
14
4
84
3
164
3
131
4
109
5
244
5
135
5
85
4
112
3
149
3
101
4
108
5
39
6
236
5
232
4
224
3
198
3
137
4
142
5
70
6
84
6
114
5
69
4
241
3
155
4
144
5
88
6
143
6
200
5
129
4
239
3
101
4
76
5
42
6
136
6
232
5
173
4
220
3
38
4
255
4
220
5
78
6
210
5
148
4
153
3
150
3
60
4
17
5
151
5
73
5
44
4
3
3
198
2
100
3
74
4
241
4
236
4
2
4
191
2
89
2
231
2
212
3
161
4
225
4
21
4
212
2
61
2
178
2
152
3
133
4
240
4
93
4
53
3
117
2
184
2
147
3
124
4
4
5
167
4
132
3
152
2
179
2
125
3
120
4
27
5
232
4
222
3
199
2
149
2
73
3
62
4
236
4
248
4
23
4
223
2
128
2
26
3
1
4
204
4
15
5
69
4
5
3
114
2
209
2
173
3
139
4
244
4
96
4
50
3
108
2
174
2
135
3
112
4
248
4
159
4
126
3
144
2
146
2
84
3
68
4
226
4
180
4
181
3
159
2
100
2
20
3
6
4
180
4
188
4
215
3
157
2
44
2
192
2
161
3
104
4
170
4
229
3
168
2
10
2
104
2
60
3
20
4
116
4
224
3
181
2
228
1
34
2
230
2
197
3
76
4
242
3
208
2
223
1
230
1
166
2
152
3
67
4
36
4
48
3
36
2
241
1
164
2
154
3
77
4
100
4
147
3
97
2
244
1
127
2
92
3
44
4
123
4
189
3
140
2
239
1
81
2
40
3
6
4
113
4
237
3
203
2
252
1
44
2
248
2
220
3
100
4
25
4
1
3
24
2
18
2
197
2
172
3
86
4
68
4
85
3
70
2
5
2
172
2
147
3
68
4
100
4
151
3
116
2
1
2
142
2
112
3
69
4
154
4
241
3
204
2
46
2
136
2
93
3
53
4
172
4
52
4
26
3
68
2
104
2
41
3
4
4
136
4
59
4
38
3
60
2
55
2
236
2
212
3
123
4
100
4
121
3
103
2
38
2
193
2
171
3
96
4
136
4
195
3
151
2
40
2
178
2
145
3
95
4
190
4
4
4
216
2
53
2
145
2
120
3
129
4
71
5
40
5
119
4
240
3
46
4
251
4
3
6
206
6
35
7
119
6
116
5
56
5
113
5
151
5
148
5
46
5
25
4
235
2
153
2
56
3
16
4
201
4
233
4
23
4
228
2
104
2
237
2
197
3
148
4
231
4
60
4
14
3
107
2
193
2
148
3
123
4
244
4
136
4
111
3
151
2
184
2
121
3
97
4
230
4
167
4
149
3
160
2
142
2
68
3
52
4
231
4
220
4
252
3
228
2
156
2
53
3
37
4
220
4
0
5
55
4
5
3
134
2
3
3
222
3
172
4
7
5
89
4
40
3
121
2
200
2
148
3
117
4
233
4
128
4
111
3
148
2
182
2
119
3
92
4
238
4
190
4
196
3
213
2
207
2
145
3
132
4
58
5
61
5
100
4
78
3
0
3
166
3
160
4
93
5
148
5
218
4
182
3
66
3
199
3
164
4
124
5
203
5
56
5
20
4
98
3
176
3
133
4
107
5
232
5
124
5
71
4
113
3
128
3
61
4
12
5
140
5
71
5
44
4
22
3
229
2
118
3
69
4
225
4
204
4
222
3
173
2
63
2
201
2
161
3
84
4
128
4
187
3
134
2
252
1
118
2
76
3
30
4
125
4
224
3
184
2
7
2
84
2
36
3
11
4
132
4
32
4
11
3
40
2
60
2
2
3
238
3
137
4
96
4
100
3
100
2
75
2
254
2
232
3
157
4
159
4
196
3
160
2
70
2
220
2
206
3
140
4
196
4
7
4
217
2
80
2
204
2
156
3
110
4
214
4
65
4
20
3
91
2
156
2
104
3
86
4
214
4
124
4
101
3
125
2
141
2
79
3
57
4
208
4
171
4
165
3
153
2
110
2
20
3
252
3
171
4
172
4
206
3
170
2
68
2
220
2
207
3
148
4
212
4
22
4
233
2
92
2
207
2
164
3
125
4
238
4
73
4
49
3
122
2
176
2
128
3
103
4
232
4
141
4
127
3
148
2
156
2
90
3
61
4
217
4
187
4
190
3
177
2
138
2
48
3
29
4
214
4
228
4
12
4
227
2
120
2
4
3
238
3
180
4
244
4
64
4
12
3
113
2
223
2
176
3
136
4
247
4
108
4
68
3
131
2
183
2
132
3
108
4
245
4
164
4
155
3
174
2
172
2
105
3
76
4
236
4
215
4
222
3
208
2
167
2
70
3
44
4
224
4
236
4
20
4
243
2
125
2
8
3
239
3
180
4
248
4
78
4
24
3
120
2
214
2
164
3
136
4
1
5
109
4
69
3
127
2
175
2
124
3
99
4
240
4
160
4
155
3
169
2
176
2
119
3
102
4
12
5
247
4
6
4
238
2
175
2
81
3
60
4
249
4
16
5
64
4
21
3
159
2
49
3
30
4
230
4
56
5
146
4
95
3
196
2
39
3
253
3
220
4
86
5
204
4
168
3
218
2
6
3
200
3
175
4
53
5
233
4
215
3
220
2
212
2
147
3
140
4
88
5
145
5
252
4
72
4
79
4
14
5
248
5
199
6
68
7
252
6
39
6
177
5
44
6
133
6
133
6
80
6
87
5
254
3
77
3
163
3
100
4
53
5
162
5
16
5
224
3
12
3
42
3
244
3
210
4
92
5
24
5
10
4
20
3
5
3
198
3
172
4
84
5
75
5
88
4
68
3
3
3
157
3
128
4
55
5
80
5
124
4
77
3
200
2
73
3
46
4
246
4
76
5
170
4
124
3
216
2
59
3
17
4
252
4
118
5
0
5
222
3
17
3
48
3
244
3
222
4
100
5
31
5
0
4
1
3
233
2
162
3
133
4
40
5
39
5
60
4
30
3
224
2
126
3
112
4
58
5
92
5
152
4
119
3
244
2
148
3
125
4
68
5
153
5
247
4
205
3
36
3
138
3
93
4
72
5
203
5
84
5
48
4
87
3
120
3
64
4
50
5
197
5
136
5
135
4
133
3
122
3
54
4
36
5
200
5
199
5
220
4
188
3
103
3
0
4
224
4
160
5
189
5
236
4
163
3
6
3
116
3
61
4
245
4
56
5
131
4
54
3
113
2
182
2
124
3
84
4
210
4
84
4
37
3
69
2
85
2
20
3
1
4
142
4
84
4
59
3
68
2
36
2
229
2
213
3
138
4
145
4
169
3
132
2
58
2
216
2
196
3
143
4
191
4
249
3
202
2
68
2
192
2
167
3
127
4
216
4
55
4
5
3
78
2
163
2
121
3
100
4
235
4
120
4
86
3
115
2
136
2
76
3
61
4
206
4
165
4
158
3
144
2
109
2
36
3
17
4
196
4
210
4
236
3
198
2
115
2
12
3
248
3
199
4
252
4
57
4
251
2
124
2
236
2
214
3
172
4
20
5
127
4
76
3
152
2
211
2
165
3
144
4
23
5
172
4
140
3
166
2
180
2
121
3
109
4
4
5
212
4
211
3
204
2
153
2
87
3
60
4
240
4
3
5
28
4
245
2
155
2
44
3
24
4
227
4
25
5
92
4
43
3
156
2
32
3
245
3
200
4
52
5
158
4
116
3
180
2
246
2
205
3
176
4
63
5
220
4
192
3
210
2
220
2
160
3
160
4
56
5
25
5
41
4
24
3
238
2
167
3
140
4
64
5
83
5
116
4
76
3
239
2
121
3
94
4
39
5
92
5
166
4
111
3
216
2
73
3
35
4
246
4
88
5
195
4
150
3
217
2
33
3
236
3
213
4
99
5
4
5
236
3
11
3
14
3
208
3
190
4
84
5
56
5
66
4
40
3
240
2
160
3
132
4
60
5
83
5
116
4
79
3
242
2
124
3
104
4
51
5
120
5
184
4
146
3
249
2
124
3
78
4
37
5
140
5
1
5
212
3
8
3
69
3
12
4
240
4
121
5
28
5
8
4
35
3
31
3
224
3
211
4
108
5
78
5
96
4
78
3
28
3
191
3
159
4
88
5
111
5
148
4
105
3
1
3
137
3
104
4
55
5
120
5
184
4
139
3
236
2
116
3
130
4
176
5
140
6
123
6
144
5
232
4
35
5
28
6
136
7
162
8
148
8
124
7
67
6
121
5
104
5
187
5
16
6
220
5
222
4
177
3
104
3
247
3
191
4
100
5
123
5
153
4
93
3
235
2
98
3
64
4
14
5
93
5
180
4
142
3
246
2
100
3
74
4
36
5
132
5
251
4
200
3
238
2
17
3
204
3
174
4
64
5
241
4
216
3
220
2
212
2
142
3
131
4
28
5
8
5
30
4
254
2
200
2
118
3
93
4
36
5
71
5
117
4
90
3
239
2
116
3
79
4
18
5
81
5
161
4
126
3
216
2
54
3
21
4
236
4
96
5
237
4
209
3
9
3
61
3
4
4
244
4
147
5
78
5
77
4
87
3
72
3
12
4
7
5
150
5
152
5
175
4
156
3
100
3
14
4
246
4
168
5
199
5
249
4
207
3
99
3
229
3
198
4
150
5
236
5
64
5
23
4
101
3
193
3
150
4
110
5
232
5
119
5
78
4
116
3
145
3
72
4
44
5
179
5
88
5
60
4
44
3
1
3
158
3
126
4
9
5
236
4
242
3
194
2
101
2
247
2
204
3
124
4
162
4
204
3
154
2
27
2
148
2
108
3
61
4
140
4
238
3
194
2
16
2
104
2
66
3
24
4
152
4
42
4
6
3
54
2
96
2
38
3
24
4
179
4
116
4
110
3
122
2
97
2
17
3
7
4
166
4
168
4
189
3
153
2
73
2
226
2
197
3
132
4
178
4
228
3
185
2
55
2
173
2
137
3
89
4
172
4
20
4
235
2
52
2
136
2
87
3
52
4
176
4
67
4
31
3
64
2
96
2
28
3
5
4
154
4
89
4
81
3
85
2
50
2
228
2
207
3
118
4
120
4
150
3
112
2
29
2
195
2
164
3
100
4
155
4
214
3
169
2
35
2
148
2
112
3
74
4
164
4
4
4
226
2
37
2
112
2
64
3
24
4
150
4
50
4
25
3
49
2
71
2
5
3
236
3
135
4
81
4
78
3
74
2
32
2
212
2
189
3
102
4
116
4
147
3
104
2
12
2
167
2
132
3
78
4
138
4
204
3
156
2
23
2
132
2
96
3
55
4
148
4
4
4
217
2
22
2
89
2
45
3
8
4
140
4
49
4
12
3
40
2
58
2
252
2
224
3
122
4
77
4
78
3
69
2
28
2
196
2
178
3
93
4
104
4
143
3
97
2
4
2
155
2
127
3
68
4
131
4
193
3
149
2
10
2
117
2
68
3
43
4
142
4
0
4
224
2
32
2
101
2
59
3
29
4
172
4
67
4
40
3
65
2
78
2
12
3
252
3
155
4
113
4
121
3
107
2
56
2
229
2
207
3
124
4
137
4
174
3
127
2
28
2
172
2
144
3
88
4
158
4
220
3
172
2
29
2
128
2
89
3
35
4
153
4
12
4
230
2
25
2
88
2
39
3
6
4
152
4
47
4
24
3
54
2
100
2
96
3
176
4
186
5
238
5
21
5
18
4
236
3
204
4
75
6
101
7
150
7
187
6
37
5
254
3
215
3
62
4
222
4
39
5
105
4
49
3
133
2
213
2
161
3
121
4
215
4
61
4
8
3
57
2
109
2
75
3
58
4
200
4
123
4
109
3
112
2
116
2
57
3
52
4
197
4
196
4
194
3
177
2
117
2
28
3
0
4
186
4
208
4
247
3
203
2
88
2
233
2
215
3
168
4
240
4
78
4
34
3
136
2
247
2
207
3
178
4
38
5
170
4
134
3
195
2
246
2
188
3
163
4
47
5
222
4
210
3
220
2
204
2
138
3
121
4
27
5
14
5
21
4
6
3
206
2
122
3
104
4
43
5
79
5
132
4
91
3
229
2
108
3
86
4
42
5
127
5
222
4
174
3
18
3
119
3
83
4
49
5
175
5
50
5
6
4
50
3
94
3
42
4
19
5
163
5
91
5
78
4
83
3
71
3
11
4
255
4
171
5
162
5
188
4
150
3
74
3
214
3
176
4
88
5
104
5
139
4
82
3
194
2
53
3
11
4
203
4
13
5
82
4
25
3
102
2
175
2
114
3
62
4
171
4
39
4
252
2
43
2
83
2
24
3
10
4
151
4
80
4
70
3
74
2
55
2
243
2
226
3
142
4
135
4
158
3
128
2
62
2
218
2
194
3
134
4
175
4
232
3
190
2
63
2
190
2
158
3
107
4
192
4
35
4
246
2
81
2
162
2
115
3
87
4
218
4
106
4
71
3
119
2
153
2
94
3
78
4
216
4
153
4
146
3
142
2
119
2
42
3
24
4
193
4
195
4
211
3
188
2
115
2
19
3
253
3
198
4
246
4
50
4
242
2
128
2
246
2
215
3
175
4
3
5
102
4
58
3
142
2
224
2
178
3
147
4
19
5
162
4
128
3
160
2
186
2
126
3
107
4
251
4
197
4
198
3
195
2
168
2
94
3
75
4
241
4
242
4
2
4
230
2
151
2
44
3
16
4
214
4
11
5
71
4
30
3
150
2
7
3
227
3
182
4
18
5
120
4
78
3
153
2
230
2
186
3
152
4
26
5
174
4
145
3
184
2
207
2
142
3
126
4
19
5
223
4
223
3
221
2
182
2
104
3
83
4
5
5
14
5
42
4
6
3
176
2
75
3
45
4
243
4
46
5
107
4
67
3
181
2
39
3
7
4
212
4
53
5
159
4
122
3
186
2
5
3
208
3
174
4
48
5
203
4
172
3
207
2
224
2
156
3
142
4
32
5
240
4
243
3
234
2
196
2
114
3
94
4
14
5
19
5
51
4
16
3
187
2
78
3
57
4
251
4
60
5
126
4
88
3
201
2
58
3
24
4
238
4
84
5
199
4
163
3
229
2
38
3
232
3
196
4
74
5
227
4
197
3
219
2
233
2
164
3
146
4
38
5
249
4
2
4
246
2
204
2
122
3
98
4
18
5
35
5
69
4
31
3
195
2
82
3
52
4
247
4
54
5
122
4
80
3
182
2
28
3
243
3
203
4
77
5
239
4
26
4
180
3
78
4
74
5
54
6
195
6
158
6
9
6
166
5
234
5
169
6
91
7
81
7
98
6
235
4
156
3
76
3
227
3
182
4
82
5
80
5
98
4
48
3
203
2
90
3
59
4
6
5
67
5
134
4
90
3
191
2
38
3
0
4
211
4
59
5
178
4
142
3
202
2
251
2
203
3
168
4
50
5
211
4
184
3
202
2
200
2
114
3
110
4
10
5
242
4
6
4
252
2
210
2
128
3
111
4
39
5
72
5
118
4
84
3
242
2
122
3
90
4
34
5
104
5
164
4
126
3
220
2
60
3
19
4
230
4
78
5
201
4
166
3
231
2
38
3
238
3
216
4
104
5
24
5
16
4
38
3
46
3
232
3
222
4
130
5
112
5
139
4
128
3
78
3
254
3
234
4
172
5
203
5
251
4
216
3
118
3
2
4
234
4
187
5
10
6
92
5
58
4
158
3
8
4
227
4
184
5
42
6
168
5
136
4
187
3
238
3
176
4
142
5
19
6
183
5
153
4
153
3
147
3
49
4
15
5
157
5
115
5
114
4
70
3
244
2
139
3
102
4
14
5
30
5
58
4
2
3
147
2
19
3
238
3
179
4
254
4
86
4
35
3
128
2
224
2
184
3
141
4
252
4
130
4
97
3
150
2
203
2
144
3
117
4
3
5
182
4
166
3
186
2
176
2
102
3
82
4
238
4
219
4
240
3
220
2
162
2
90
3
54
4
235
4
14
5
62
4
21
3
170
2
48
3
10
4
215
4
35
5
115
4
82
3
169
2
7
3
223
3
178
4
41
5
178
4
142
3
187
2
238
2
174
3
147
4
30
5
218
4
213
3
239
2
222
2
144
3
122
4
23
5
8
5
35
4
24
3
215
2
120
3
91
4
16
5
58
5
115
4
70
3
215
2
86
3
51
4
255
4
84
5
166
4
126
3
215
2
44
3
250
3
211
4
74
5
211
4
180
3
216
2
249
2
184
3
167
4
62
5
251
4
244
3
251
2
230
2
151
3
138
4
42
5
32
5
66
4
42
3
220
2
123
3
99
4
31
5
78
5
134
4
90
3
226
2
97
3
57
4
6
5
91
5
179
4
139
3
226
2
64
3
26
4
237
4
112
5
3
5
224
3
2
3
35
3
230
3
205
4
98
5
32
5
29
4
38
3
11
3
186
3
174
4
77
5
64
5
94
4
66
3
246
2
150
3
123
4
58
5
107
5
162
4
114
3
241
2
105
3
71
4
22
5
114
5
209
4
171
3
254
2
82
3
35
4
6
5
126
5
16
5
250
3
31
3
67
3
2
4
228
4
114
5
51
5
48
4
55
3
34
3
214
3
198
4
107
5
94
5
120
4
89
3
16
3
174
3
154
4
89
5
134
5
186
4
139
3
15
3
150
3
120
4
72
5
151
5
248
4
222
3
36
3
116
3
70
4
26
5
136
5
18
5
239
3
15
3
59
3
15
4
0
5
147
5
78
5
70
4
64
3
34
3
213
3
187
4
91
5
83
5
110
4
82
3
12
3
179
3
189
4
198
5
98
6
0
6
43
5
202
4
85
5
60
6
88
7
71
8
13
8
230
6
42
6
234
5
251
5
32
6
30
6
130
5
80
4
108
3
130
3
45
4
2
5
122
5
71
5
55
4
42
3
2
3
177
3
154
4
50
5
38
5
75
4
48
3
228
2
134
3
112
4
51
5
122
5
186
4
136
3
243
2
99
3
41
4
238
4
69
5
166
4
118
3
191
2
11
3
219
3
182
4
48
5
202
4
182
3
208
2
235
2
171
3
139
4
41
5
239
4
239
3
234
2
200
2
125
3
107
4
19
5
19
5
54
4
11
3
180
2
86
3
63
4
2
5
56
5
114
4
73
3
202
2
69
3
34
4
248
4
98
5
200
4
163
3
232
2
54
3
10
4
233
4
106
5
8
5
233
3
8
3
30
3
224
3
197
4
91
5
52
5
56
4
50
3
18
3
202
3
194
4
110
5
119
5
168
4
131
3
50
3
214
3
194
4
134
5
195
5
2
5
215
3
78
3
190
3
144
4
98
5
190
5
21
5
226
3
15
3
66
3
254
3
205
4
55
5
200
4
148
3
151
2
146
2
58
3
20
4
162
4
106
4
90
3
66
2
9
2
170
2
155
3
54
4
59
4
91
3
44
2
204
1
94
2
63
3
3
4
62
4
123
3
70
2
175
1
28
2
244
2
203
3
54
4
163
3
122
2
178
1
238
1
190
2
168
3
45
4
214
3
193
2
213
1
226
1
162
2
146
3
50
4
18
4
26
3
11
2
226
1
142
2
134
3
65
4
92
4
139
3
96
2
248
1
147
2
127
3
80
4
158
4
222
3
166
2
11
2
120
2
89
3
59
4
176
4
37
4
247
2
38
2
89
2
54
3
35
4
176
4
94
4
50
3
76
2
79
2
18
3
14
4
183
4
159
4
164
3
142
2
81
2
0
3
245
3
172
4
198
4
234
3
179
2
64
2
213
2
197
3
125
4
224
4
37
4
234
2
67
2
171
2
138
3
114
4
238
4
104
4
55
3
89
2
140
2
91
3
74
4
212
4
134
4
107
3
106
2
99
2
35
3
23
4
187
4
168
4
174
3
139
2
75
2
245
2
234
3
169
4
200
4
239
3
179
2
57
2
203
2
187
3
144
4
227
4
45
4
238
2
70
2
158
2
123
3
96
4
214
4
76
4
33
3
58
2
95
2
57
3
48
4
201
4
126
4
91
3
78
2
66
2
254
2
240
3
158
4
139
4
138
3
96
2
21
2
186
2
184
3
120
4
156
4
199
3
131
2
255
1
134
2
110
3
70
4
155
4
230
3
164
2
243
1
80
2
44
3
26
4
159
4
42
4
254
2
36
2
76
2
39
3
32
4
188
4
123
4
102
3
94
2
73
2
3
3
250
3
176
4
162
4
179
3
138
2
67
2
237
2
232
3
175
4
214
4
6
4
200
2
74
2
207
2
186
3
140
4
235
4
56
4
250
2
70
2
160
2
122
3
95
4
222
4
90
4
35
3
67
2
110
2
94
3
136
4
116
5
155
5
231
4
20
4
22
4
219
4
1
6
50
7
166
7
228
6
178
5
26
5
9
5
64
5
121
5
102
5
119
4
35
3
142
2
254
2
231
3
143
4
254
4
84
4
7
3
75
2
166
2
127
3
110
4
244
4
127
4
75
3
105
2
119
2
79
3
69
4
234
4
159
4
141
3
128
2
100
2
43
3
18
4
220
4
204
4
213
3
152
2
68
2
239
2
232
3
188
4
247
4
39
4
237
2
107
2
238
2
224
3
199
4
41
5
132
4
75
3
136
2
216
2
183
3
161
4
41
5
187
4
133
3
148
2
178
2
125
3
124
4
35
5
236
4
222
3
211
2
164
2
116
3
119
4
52
5
64
5
91
4
36
3
209
2
131
3
124
4
80
5
151
5
208
4
148
3
14
3
148
3
129
4
106
5
212
5
60
5
7
4
65
3
143
3
117
4
100
5
244
5
139
5
92
4
104
3
127
3
77
4
72
5
234
5
180
5
174
4
147
3
100
3
20
4
3
5
166
5
164
5
173
4
94
3
232
2
118
3
84
4
13
5
59
5
92
4
12
3
107
2
212
2
174
3
135
4
228
4
60
4
6
3
54
2
121
2
77
3
56
4
196
4
99
4
52
3
68
2
90
2
29
3
32
4
203
4
156
4
148
3
131
2
88
2
9
3
11
4
196
4
208
4
236
3
180
2
82
2
243
2
228
3
173
4
243
4
44
4
239
2
90
2
206
2
184
3
151
4
1
5
104
4
47
3
106
2
168
2
129
3
109
4
252
4
154
4
109
3
100
2
127
2
70
3
60
4
231
4
188
4
188
3
161
2
110
2
37
3
34
4
220
4
240
4
18
4
212
2
116
2
13
3
252
3
208
4
32
5
92
4
30
3
131
2
236
2
196
3
187
4
44
5
148
4
96
3
149
2
204
2
166
3
151
4
44
5
207
4
166
3
168
2
174
2
110
3
104
4
23
5
240
4
236
3
205
2
142
2
64
3
59
4
246
4
12
5
43
4
237
2
132
2
23
3
4
4
217
4
39
5
100
4
36
3
130
2
236
2
216
3
189
4
46
5
156
4
106
3
144
2
201
2
163
3
148
4
41
5
215
4
172
3
169
2
171
2
112
3
105
4
23
5
252
4
254
3
199
2
156
2
72
3
67
4
0
5
24
5
64
4
252
2
137
2
29
3
12
4
221
4
46
5
109
4
46
3
135
2
234
2
208
3
177
4
38
5
156
4
106
3
144
2
197
2
160
3
140
4
36
5
218
4
178
3
186
2
173
2
109
3
104
4
25
5
252
4
254
3
222
2
148
2
60
3
55
4
245
4
28
5
66
4
8
3
149
2
39
3
20
4
233
4
71
5
140
4
77
3
170
2
8
3
240
3
217
4
84
5
208
4
151
3
185
2
228
2
183
3
166
4
64
5
247
4
212
3
204
2
198
2
136
3
132
4
55
5
31
5
38
4
6
3
185
2
96
3
94
4
32
5
68
5
110
4
40
3
172
2
59
3
38
4
252
4
82
5
137
4
68
3
152
2
0
3
4
4
43
5
252
5
212
5
233
4
40
4
89
4
64
5
129
6
164
7
194
7
184
6
175
5
49
5
52
5
140
5
215
5
152
5
144
4
105
3
0
3
149
3
131
4
56
5
88
5
123
4
49
3
176
2
55
3
28
4
244
4
83
5
157
4
95
3
175
2
1
3
228
3
210
4
73
5
204
4
155
3
176
2
214
2
167
3
144
4
30
5
215
4
193
3
172
2
158
2
94
3
94
4
22
5
16
5
36
4
253
2
172
2
84
3
79
4
24
5
69
5
123
4
57
3
184
2
62
3
37
4
248
4
83
5
156
4
92
3
175
2
245
2
212
3
197
4
69
5
212
4
175
3
204
2
245
2
204
3
196
4
97
5
42
5
33
4
20
3
254
2
189
3
184
4
114
5
113
5
136
4
97
3
13
3
180
3
178
4
120
5
176
5
238
4
177
3
47
3
187
3
164
4
137
5
243
5
92
5
53
4
143
3
222
3
184
4
167
5
36
6
172
5
127
4
134
3
149
3
93
4
72
5
228
5
169
5
141
4
108
3
51
3
205
3
164
4
55
5
21
5
20
4
206
2
97
2
244
2
225
3
164
4
212
4
9
4
193
2
48
2
170
2
136
3
94
4
194
4
24
4
226
2
47
2
127
2
94
3
81
4
213
4
96
4
63
3
81
2
104
2
54
3
44
4
204
4
151
4
134
3
116
2
87
2
15
3
6
4
197
4
200
4
225
3
183
2
88
2
244
2
229
3
180
4
233
4
39
4
229
2
93
2
221
2
189
3
148
4
251
4
92
4
40
3
101
2
172
2
136
3
114
4
253
4
148
4
117
3
133
2
152
2
99
3
84
4
245
4
205
4
197
3
174
2
135
2
60
3
45
4
231
4
238
4
12
4
226
2
114
2
13
3
253
3
198
4
8
5
74
4
8
3
120
2
241
2
198
3
144
4
231
4
46
4
225
2
15
2
65
2
22
3
7
4
145
4
60
4
50
3
84
2
125
2
109
3
116
4
40
5
14
5
9
4
246
2
203
2
127
3
116
4
43
5
54
5
95
4
47
3
204
2
100
3
87
4
30
5
96
5
163
4
95
3
