109
3
109
3
113
3
117
3
121
3
131
3
138
3
149
3
148
3
145
3
142
3
135
3
141
3
144
3
138
3
138
3
135
3
135
3
125
3
115
3
109
3
105
3
96
3
96
3
97
3
104
3
106
3
111
3
109
3
119
3
108
3
102
3
85
3
70
3
40
3
60
3
61
3
69
3
76
3
77
3
76
3
70
3
68
3
69
3
72
3
75
3
78
3
83
3
88
3
85
3
84
3
78
3
81
3
84
3
78
3
93
3
104
3
109
3
118
3
162
3
239
3
110
4
235
4
109
5
194
5
0
6
58
6
91
6
128
6
125
6
46
6
104
5
200
4
44
4
43
3
167
2
159
2
194
2
221
2
9
3
36
3
70
3
80
3
113
3
131
3
136
3
144
3
141
3
146
3
167
3
169
3
179
3
181
3
156
3
141
3
151
3
151
3
167
3
172
3
168
3
179
3
186
3
196
3
201
3
203
3
204
3
199
3
223
3
233
3
224
3
236
3
237
3
226
3
229
3
240
3
255
3
9
4
24
4
27
4
29
4
37
4
24
4
33
4
35
4
38
4
43
4
47
4
62
4
63
4
62
4
45
4
49
4
62
4
59
4
70
4
72
4
77
4
77
4
81
4
79
4
78
4
87
4
85
4
87
4
75
4
76
4
75
4
70
4
68
4
71
4
69
4
56
4
56
4
52
4
32
4
32
4
35
4
24
4
29
4
12
4
20
4
12
4
255
3
245
3
233
3
213
3
198
3
190
3
188
3
182
3
167
3
171
3
165
3
150
3
137
3
141
3
131
3
130
3
126
3
126
3
129
3
130
3
123
3
130
3
111
3
108
3
114
3
127
3
128
3
128
3
111
3
80
3
66
3
79
3
77
3
82
3
83
3
86
3
88
3
88
3
94
3
71
3
73
3
69
3
87
3
82
3
74
3
70
3
72
3
68
3
64
3
55
3
56
3
53
3
56
3
50
3
56
3
55
3
55
3
66
3
65
3
75
3
75
3
72
3
61
3
43
3
47
3
47
3
56
3
56
3
65
3
69
3
63
3
38
3
23
3
31
3
43
3
50
3
46
3
48
3
42
3
48
3
50
3
52
3
42
3
36
3
37
3
51
3
64
3
69
3
61
3
36
3
25
3
35
3
38
3
65
3
76
3
76
3
72
3
53
3
43
3
44
3
52
3
68
3
64
3
62
3
51
3
68
3
72
3
74
3
80
3
74
3
67
3
60
3
52
3
36
3
33
3
8
3
9
3
15
3
12
3
12
3
17
3
16
3
11
3
254
2
2
3
249
2
253
2
254
2
252
2
255
2
7
3
12
3
246
2
255
2
244
2
232
2
241
2
255
2
251
2
251
2
7
3
252
2
246
2
230
2
236
2
237
2
246
2
241
2
244
2
246
2
252
2
255
2
56
3
145
3
27
4
154
4
4
5
88
5
169
5
227
5
19
6
60
6
79
6
197
5
8
5
104
4
144
3
146
2
51
2
54
2
70
2
120
2
167
2
198
2
221
2
250
2
7
3
12
3
12
3
14
3
16
3
19
3
18
3
19
3
28
3
24
3
24
3
24
3
29
3
27
3
29
3
36
3
36
3
43
3
32
3
40
3
50
3
42
3
43
3
63
3
64
3
52
3
61
3
69
3
73
3
82
3
85
3
91
3
99
3
110
3
117
3
112
3
105
3
121
3
124
3
122
3
124
3
133
3
141
3
149
3
159
3
169
3
176
3
166
3
164
3
168
3
170
3
168
3
172
3
176
3
179
3
184
3
187
3
187
3
185
3
187
3
184
3
188
3
200
3
200
3
190
3
194
3
176
3
164
3
164
3
176
3
165
3
162
3
179
3
167
3
165
3
174
3
159
3
166
3
156
3
152
3
153
3
145
3
131
3
126
3
128
3
129
3
126
3
123
3
117
3
108
3
105
3
101
3
100
3
97
3
104
3
97
3
95
3
91
3
84
3
85
3
93
3
97
3
95
3
95
3
95
3
98
3
97
3
98
3
86
3
91
3
97
3
104
3
101
3
100
3
108
3
114
3
116
3
119
3
120
3
112
3
114
3
111
3
119
3
131
3
131
3
131
3
132
3
128
3
106
3
98
3
107
3
106
3
115
3
123
3
128
3
129
3
131
3
127
3
130
3
125
3
128
3
128
3
126
3
124
3
125
3
128
3
128
3
126
3
118
3
119
3
115
3
120
3
123
3
128
3
129
3
142
3
143
3
137
3
131
3
122
3
121
3
112
3
123
3
131
3
135
3
127
3
123
3
120
3
123
3
130
3
123
3
126
3
120
3
123
3
122
3
115
3
123
3
126
3
128
3
145
3
149
3
164
3
159
3
167
3
165
3
181
3
185
3
186
3
189
3
195
3
191
3
175
3
168
3
171
3
168
3
170
3
151
3
156
3
148
3
136
3
130
3
130
3
128
3
120
3
136
3
132
3
116
3
124
3
128
3
104
3
109
3
117
3
107
3
108
3
112
3
114
3
120
3
117
3
117
3
109
3
109
3
102
3
107
3
107
3
117
3
113
3
110
3
108
3
104
3
104
3
107
3
96
3
95
3
100
3
104
3
111
3
145
3
214
3
64
4
181
4
22
5
91
5
127
5
161
5
168
5
186
5
195
5
118
5
191
4
42
4
163
3
218
2
122
2
141
2
176
2
231
2
20
3
57
3
87
3
111
3
116
3
136
3
136
3
140
3
132
3
131
3
131
3
126
3
131
3
137
3
133
3
141
3
142
3
139
3
146
3
152
3
149
3
154
3
160
3
158
3
168
3
165
3
156
3
168
3
167
3
164
3
183
3
186
3
180
3
185
3
191
3
193
3
200
3
201
3
207
3
208
3
215
3
223
3
220
3
221
3
231
3
235
3
238
3
240
3
249
3
252
3
253
3
4
4
248
3
6
4
4
4
249
3
8
4
8
4
250
3
5
4
9
4
248
3
248
3
253
3
255
3
1
4
251
3
247
3
241
3
242
3
243
3
246
3
244
3
233
3
229
3
221
3
219
3
216
3
211
3
223
3
208
3
213
3
212
3
211
3
209
3
204
3
195
3
190
3
184
3
174
3
159
3
158
3
160
3
152
3
146
3
146
3
143
3
124
3
132
3
128
3
120
3
124
3
122
3
118
3
123
3
128
3
116
3
127
3
125
3
126
3
122
3
126
3
116
3
127
3
128
3
118
3
125
3
134
3
130
3
135
3
134
3
124
3
137
3
139
3
147
3
142
3
145
3
144
3
139
3
148
3
144
3
146
3
149
3
140
3
141
3
143
3
151
3
152
3
150
3
138
3
147
3
148
3
133
3
146
3
155
3
155
3
160
3
160
3
160
3
157
3
145
3
143
3
148
3
154
3
160
3
154
3
155
3
165
3
166
3
162
3
157
3
157
3
158
3
153
3
156
3
155
3
155
3
157
3
155
3
157
3
160
3
161
3
162
3
159
3
162
3
155
3
156
3
154
3
154
3
150
3
167
3
171
3
177
3
184
3
188
3
193
3
200
3
191
3
198
3
215
3
223
3
216
3
221
3
222
3
224
3
217
3
223
3
220
3
213
3
194
3
202
3
195
3
183
3
176
3
169
3
164
3
154
3
168
3
170
3
163
3
166
3
162
3
155
3
156
3
152
3
155
3
162
3
160
3
152
3
152
3
156
3
155
3
161
3
163
3
151
3
157
3
159
3
158
3
161
3
163
3
160
3
154
3
157
3
156
3
160
3
151
3
150
3
153
3
151
3
154
3
153
3
189
3
0
4
89
4
210
4
47
5
123
5
171
5
179
5
166
5
173
5
161
5
65
5
162
4
30
4
142
3
227
2
161
2
174
2
221
2
18
3
64
3
101
3
145
3
148
3
168
3
190
3
190
3
180
3
189
3
192
3
184
3
194
3
194
3
199
3
203
3
202
3
210
3
208
3
212
3
209
3
214
3
210
3
218
3
219
3
221
3
223
3
224
3
224
3
227
3
231
3
234
3
231
3
233
3
251
3
252
3
247
3
250
3
0
4
0
4
5
4
13
4
14
4
25
4
33
4
34
4
39
4
34
4
38
4
49
4
52
4
54
4
72
4
72
4
60
4
69
4
75
4
80
4
80
4
82
4
82
4
73
4
75
4
86
4
76
4
69
4
57
4
61
4
68
4
72
4
69
4
62
4
57
4
50
4
46
4
50
4
52
4
47
4
45
4
34
4
33
4
33
4
33
4
39
4
32
4
32
4
22
4
19
4
20
4
7
4
255
3
254
3
248
3
232
3
243
3
237
3
234
3
235
3
232
3
227
3
213
3
220
3
216
3
211
3
217
3
210
3
212
3
210
3
205
3
209
3
206
3
209
3
216
3
215
3
221
3
218
3
207
3
221
3
219
3
224
3
221
3
218
3
219
3
228
3
223
3
225
3
230
3
224
3
222
3
219
3
222
3
221
3
224
3
221
3
223
3
223
3
221
3
220
3
216
3
219
3
219
3
219
3
221
3
218
3
221
3
219
3
210
3
207
3
212
3
216
3
211
3
219
3
222
3
208
3
203
3
199
3
194
3
199
3
205
3
206
3
207
3
207
3
204
3
202
3
201
3
202
3
191
3
195
3
200
3
204
3
208
3
211
3
203
3
205
3
201
3
200
3
202
3
203
3
207
3
201
3
205
3
207
3
200
3
201
3
211
3
221
3
214
3
195
3
229
3
230
3
241
3
241
3
235
3
244
3
241
3
232
3
240
3
242
3
241
3
235
3
232
3
225
3
215
3
210
3
197
3
191
3
191
3
188
3
189
3
186
3
183
3
187
3
184
3
165
3
170
3
160
3
159
3
156
3
165
3
167
3
174
3
169
3
161
3
161
3
160
3
162
3
161
3
159
3
150
3
143
3
156
3
165
3
163
3
158
3
160
3
152
3
154
3
150
3
142
3
137
3
145
3
154
3
204
3
32
4
128
4
231
4
73
5
138
5
167
5
149
5
137
5
118
5
66
5
195
4
56
4
196
3
36
3
155
2
130
2
164
2
221
2
11
3
58
3
82
3
119
3
146
3
158
3
185
3
186
3
185
3
182
3
181
3
184
3
173
3
188
3
188
3
190
3
196
3
200
3
197
3
196
3
194
3
203
3
202
3
205
3
209
3
212
3
211
3
218
3
225
3
223
3
226
3
229
3
231
3
236
3
233
3
243
3
240
3
236
3
225
3
245
3
4
4
249
3
8
4
8
4
12
4
13
4
21
4
22
4
31
4
36
4
31
4
37
4
46
4
45
4
48
4
48
4
52
4
48
4
47
4
44
4
42
4
38
4
41
4
41
4
46
4
36
4
35
4
35
4
17
4
28
4
18
4
19
4
17
4
4
4
0
4
4
4
253
3
255
3
247
3
241
3
218
3
233
3
228
3
223
3
218
3
218
3
214
3
205
3
206
3
201
3
195
3
187
3
183
3
178
3
170
3
156
3
164
3
161
3
159
3
155
3
148
3
150
3
144
3
147
3
144
3
135
3
133
3
136
3
130
3
135
3
134
3
127
3
135
3
133
3
121
3
130
3
127
3
134
3
135
3
140
3
137
3
130
3
132
3
138
3
133
3
133
3
132
3
131
3
132
3
128
3
137
3
140
3
133
3
133
3
132
3
135
3
128
3
131
3
132
3
133
3
127
3
134
3
127
3
130
3
124
3
120
3
119
3
110
3
116
3
105
3
109
3
115
3
106
3
109
3
119
3
108
3
116
3
118
3
118
3
117
3
115
3
108
3
108
3
111
3
108
3
104
3
106
3
102
3
99
3
101
3
100
3
97
3
98
3
98
3
99
3
99
3
99
3
100
3
103
3
102
3
112
3
113
3
117
3
123
3
119
3
115
3
119
3
132
3
143
3
142
3
149
3
151
3
148
3
147
3
144
3
139
3
134
3
134
3
136
3
124
3
106
3
95
3
97
3
92
3
78
3
82
3
82
3
84
3
88
3
85
3
87
3
82
3
72
3
71
3
76
3
72
3
67
3
67
3
58
3
72
3
66
3
70
3
72
3
66
3
72
3
65
3
68
3
72
3
73
3
68
3
79
3
75
3
73
3
73
3
76
3
76
3
77
3
79
3
81
3
96
3
120
3
178
3
5
4
104
4
207
4
39
5
93
5
95
5
96
5
71
5
28
5
165
4
32
4
160
3
2
3
76
2
10
2
34
2
76
2
125
2
192
2
237
2
13
3
58
3
76
3
106
3
116
3
114
3
123
3
120
3
119
3
123
3
126
3
124
3
120
3
124
3
128
3
129
3
143
3
142
3
132
3
137
3
153
3
142
3
145
3
155
3
163
3
170
3
179
3
174
3
170
3
183
3
182
3
185
3
195
3
198
3
204
3
204
3
214
3
221
3
223
3
233
3
238
3
235
3
239
3
248
3
243
3
2
4
15
4
15
4
18
4
17
4
11
4
22
4
17
4
20
4
30
4
26
4
28
4
37
4
26
4
22
4
29
4
32
4
24
4
21
4
20
4
20
4
24
4
20
4
12
4
7
4
251
3
254
3
245
3
242
3
236
3
229
3
224
3
221
3
218
3
217
3
219
3
218
3
212
3
211
3
201
3
191
3
183
3
186
3
176
3
167
3
162
3
156
3
151
3
149
3
136
3
134
3
128
3
122
3
122
3
118
3
117
3
117
3
114
3
113
3
113
3
109
3
105
3
113
3
110
3
104
3
115
3
120
3
119
3
124
3
129
3
127
3
128
3
132
3
123
3
116
3
113
3
123
3
117
3
121
3
132
3
132
3
122
3
133
3
144
3
142
3
139
3
131
3
139
3
145
3
139
3
138
3
139
3
143
3
148
3
141
3
141
3
136
3
130
3
132
3
139
3
138
3
135
3
146
3
148
3
134
3
132
3
135
3
125
3
127
3
129
3
133
3
135
3
141
3
138
3
141
3
142
3
136
3
133
3
132
3
128
3
136
3
137
3
136
3
137
3
137
3
138
3
136
3
133
3
136
3
144
3
153
3
147
3
155
3
161
3
168
3
161
3
178
3
169
3
171
3
185
3
184
3
185
3
180
3
171
3
171
3
174
3
158
3
157
3
161
3
148
3
137
3
146
3
128
3
123
3
133
3
125
3
138
3
139
3
133
3
125
3
129
3
124
3
123
3
123
3
126
3
127
3
127
3
124
3
124
3
115
3
119
3
115
3
107
3
118
3
131
3
114
3
121
3
129
3
116
3
124
3
125
3
123
3
122
3
129
3
128
3
130
3
133
3
141
3
171
3
242
3
77
4
179
4
46
5
170
5
239
5
253
5
255
5
229
5
176
5
53
5
164
4
18
4
91
3
184
2
113
2
115
2
128
2
168
2
220
2
10
3
41
3
73
3
101
3
127
3
138
3
142
3
149
3
155
3
154
3
156
3
157
3
157
3
156
3
164
3
166
3
171
3
173
3
173
3
176
3
176
3
180
3
186
3
189
3
184
3
189
3
195
3
192
3
189
3
199
3
206
3
203
3
211
3
201
3
211
3
223
3
232
3
232
3
232
3
231
3
233
3
237
3
247
3
253
3
247
3
244
3
248
3
253
3
242
3
249
3
11
4
25
4
20
4
15
4
21
4
27
4
25
4
28
4
27
4
27
4
24
4
25
4
32
4
26
4
21
4
16
4
18
4
20
4
4
4
253
3
254
3
247
3
248
3
239
3
230
3
232
3
226
3
222
3
216
3
215
3
210
3
199
3
187
3
178
3
179
3
172
3
163
3
162
3
159
3
150
3
142
3
134
3
123
3
132
3
125
3
120
3
106
3
101
3
93
3
86
3
91
3
100
3
99
3
105
3
106
3
94
3
104
3
103
3
91
3
95
3
90
3
93
3
95
3
103
3
110
3
112
3
105
3
98
3
109
3
116
3
102
3
105
3
113
3
104
3
122
3
123
3
108
3
102
3
106
3
113
3
130
3
129
3
124
3
126
3
124
3
116
3
123
3
132
3
140
3
136
3
133
3
126
3
111
3
126
3
119
3
115
3
124
3
133
3
136
3
131
3
129
3
116
3
104
3
99
3
123
3
130
3
124
3
120
3
122
3
115
3
120
3
130
3
119
3
115
3
112
3
110
3
110
3
119
3
120
3
119
3
111
3
124
3
122
3
126
3
131
3
143
3
141
3
148
3
161
3
166
3
168
3
172
3
176
3
178
3
177
3
177
3
154
3
142
3
158
3
166
3
167
3
163
3
162
3
155
3
151
3
144
3
136
3
136
3
140
3
140
3
143
3
134
3
135
3
135
3
128
3
129
3
132
3
131
3
135
3
138
3
143
3
150
3
147
3
139
3
136
3
136
3
138
3
151
3
134
3
133
3
137
3
139
3
138
3
135
3
139
3
150
3
145
3
141
3
137
3
140
3
144
3
147
3
167
3
209
3
46
4
163
4
38
5
158
5
236
5
252
5
9
6
222
5
183
5
90
5
196
4
60
4
132
3
233
2
155
2
147
2
163
2
184
2
241
2
41
3
69
3
108
3
147
3
164
3
177
3
193
3
181
3
166
3
180
3
177
3
188
3
179
3
188
3
191
3
198
3
199
3
198
3
198
3
205
3
202
3
204
3
203
3
212
3
226
3
225
3
226
3
238
3
237
3
231
3
233
3
238
3
248
3
243
3
0
4
250
3
251
3
4
4
4
4
251
3
248
3
7
4
18
4
23
4
18
4
29
4
32
4
38
4
35
4
46
4
32
4
31
4
40
4
49
4
56
4
64
4
45
4
47
4
52
4
60
4
57
4
64
4
62
4
46
4
49
4
63
4
50
4
46
4
38
4
35
4
24
4
21
4
33
4
25
4
22
4
18
4
7
4
2
4
1
4
0
4
1
4
0
4
239
3
235
3
232
3
226
3
216
3
204
3
196
3
192
3
185
3
182
3
172
3
161
3
156
3
152
3
147
3
142
3
138
3
135
3
138
3
142
3
141
3
138
3
147
3
144
3
138
3
134
3
133
3
137
3
139
3
135
3
136
3
138
3
136
3
138
3
140
3
137
3
138
3
140
3
139
3
136
3
134
3
136
3
136
3
140
3
144
3
144
3
146
3
149
3
148
3
148
3
153
3
154
3
154
3
151
3
150
3
152
3
147
3
142
3
144
3
141
3
140
3
142
3
142
3
146
3
143
3
139
3
140
3
143
3
144
3
142
3
142
3
139
3
140
3
138
3
139
3
136
3
134
3
135
3
134
3
137
3
137
3
136
3
139
3
142
3
144
3
146
3
144
3
142
3
136
3
150
3
140
3
143
3
151
3
148
3
141
3
153
3
159
3
157
3
161
3
170
3
171
3
169
3
184
3
186
3
180
3
186
3
198
3
196
3
187
3
176
3
176
3
179
3
176
3
172
3
167
3
152
3
148
3
143
3
140
3
140
3
143
3
141
3
141
3
150
3
144
3
141
3
141
3
136
3
136
3
139
3
136
3
136
3
141
3
132
3
136
3
139
3
134
3
136
3
138
3
134
3
137
3
142
3
137
3
137
3
141
3
136
3
137
3
143
3
141
3
142
3
151
3
149
3
172
3
234
3
64
4
188
4
59
5
168
5
4
6
74
6
102
6
128
6
151
6
136
6
1
6
81
5
197
4
14
4
51
3
205
2
184
2
201
2
244
2
25
3
60
3
88
3
112
3
131
3
148
3
157
3
161
3
153
3
153
3
155
3
153
3
156
3
158
3
156
3
160
3
171
3
168
3
172
3
171
3
168
3
172
3
174
3
177
3
180
3
187
3
191
3
192
3
201
3
198
3
200
3
209
3
205
3
208
3
215
3
212
3
218
3
227
3
224
3
230
3
234
3
232
3
236
3
245
3
245
3
246
3
1
4
4
4
8
4
15
4
20
4
24
4
32
4
28
4
38
4
45
4
44
4
47
4
53
4
52
4
56
4
64
4
61
4
64
4
67
4
60
4
60
4
59
4
52
4
49
4
47
4
36
4
32
4
32
4
24
4
20
4
18
4
8
4
4
4
2
4
248
3
244
3
241
3
229
3
222
3
215
3
204
3
197
3
195
3
185
3
177
3
175
3
161
3
156
3
151
3
144
3
140
3
142
3
136
3
134
3
135
3
127
3
124
3
125
3
120
3
116
3
122
3
121
3
120
3
126
3
124
3
124
3
127
3
124
3
128
3
133
3
134
3
140
3
145
3
137
3
137
3
139
3
133
3
132
3
138
3
135
3
136
3
141
3
132
3
140
3
142
3
140
3
140
3
143
3
141
3
143
3
142
3
144
3
148
3
151
3
150
3
145
3
151
3
148
3
152
3
155
3
148
3
148
3
151
3
144
3
145
3
151
3
148
3
148
3
151
3
145
3
148
3
147
3
140
3
140
3
150
3
145
3
148
3
151
3
149
3
148
3
146
3
142
3
140
3
147
3
137
3
141
3
149
3
141
3
140
3
150
3
150
3
152
3
161
3
159
3
164
3
169
3
169
3
180
3
192
3
188
3
188
3
186
3
181
3
184
3
195
3
197
3
196
3
199
3
197
3
192
3
186
3
181
3
180
3
182
3
165
3
164
3
166
3
164
3
169
3
174
3
172
3
164
3
167
3
165
3
164
3
170
3
156
3
161
3
170
3
164
3
164
3
165
3
166
3
168
3
178
3
172
3
168
3
175
3
172
3
172
3
175
3
169
3
176
3
179
3
177
3
177
3
181
3
176
3
181
3
202
3
252
3
92
4
227
4
84
5
181
5
15
6
94
6
160
6
213
6
20
7
44
7
183
6
244
5
104
5
215
4
188
3
40
3
23
3
25
3
52
3
87
3
116
3
142
3
166
3
177
3
185
3
190
3
188
3
192
3
195
3
188
3
192
3
199
3
196
3
204
3
205
3
205
3
212
3
219
3
220
3
224
3
235
3
232
3
236
3
243
3
240
3
244
3
255
3
253
3
4
4
7
4
5
4
6
4
17
4
14
4
20
4
27
4
30
4
36
4
39
4
37
4
38
4
42
4
40
4
52
4
55
4
52
4
56
4
62
4
63
4
78
4
91
4
89
4
96
4
106
4
105
4
112
4
118
4
116
4
113
4
119
4
108
4
108
4
111
4
104
4
104
4
113
4
105
4
105
4
106
4
100
4
93
4
86
4
72
4
73
4
86
4
76
4
64
4
53
4
52
4
40
4
35
4
21
4
12
4
3
4
244
3
233
3
227
3
213
3
204
3
194
3
180
3
180
3
171
3
157
3
148
3
145
3
140
3
140
3
139
3
136
3
132
3
133
3
124
3
116
3
123
3
113
3
112
3
115
3
108
3
105
3
108
3
109
3
111
3
119
3
116
3
120
3
127
3
120
3
125
3
129
3
120
3
128
3
130
3
124
3
128
3
135
3
132
3
136
3
137
3
136
3
136
3
143
3
140
3
129
3
139
3
129
3
137
3
139
3
133
3
140
3
135
3
140
3
144
3
147
3
137
3
141
3
143
3
150
3
156
3
155
3
156
3
156
3
162
3
160
3
164
3
167
3
164
3
164
3
167
3
161
3
162
3
167
3
166
3
168
3
173
3
172
3
168
3
169
3
164
3
164
3
171
3
169
3
172
3
167
3
165
3
172
3
179
3
184
3
197
3
210
3
210
3
216
3
227
3
229
3
236
3
239
3
232
3
238
3
245
3
233
3
232
3
238
3
229
3
228
3
221
3
207
3
196
3
186
3
172
3
168
3
178
3
176
3
172
3
175
3
173
3
176
3
171
3
159
3
156
3
160
3
169
3
172
3
174
3
176
3
184
3
187
3
176
3
173
3
175
3
169
3
166
3
174
3
166
3
164
3
170
3
168
3
168
3
170
3
164
3
165
3
171
3
168
3
168
3
174
3
200
3
4
4
109
4
221
4
69
5
161
5
216
5
24
6
55
6
92
6
124
6
103
6
196
5
29
5
162
4
208
3
24
3
234
2
240
2
5
3
47
3
77
3
105
3
131
3
148
3
161
3
171
3
168
3
168
3
171
3
164
3
164
3
166
3
172
3
164
3
170
3
159
3
161
3
171
3
165
3
160
3
170
3
172
3
173
3
182
3
177
3
181
3
190
3
191
3
193
3
195
3
196
3
201
3
207
3
213
3
212
3
217
3
216
3
224
3
234
3
229
3
232
3
239
3
240
3
244
3
254
3
249
3
4
4
10
4
8
4
18
4
22
4
20
4
28
4
32
4
30
4
40
4
43
4
44
4
44
4
43
4
36
4
40
4
43
4
40
4
44
4
46
4
37
4
32
4
37
4
24
4
20
4
26
4
9
4
8
4
7
4
252
3
249
3
250
3
237
3
232
3
222
3
205
3
201
3
195
3
185
3
174
3
163
3
152
3
146
3
139
3
127
3
120
3
111
3
100
3
96
3
94
3
82
3
76
3
71
3
69
3
74
3
74
3
68
3
70
3
71
3
68
3
64
3
64
3
62
3
60
3
55
3
52
3
56
3
62
3
57
3
60
3
63
3
57
3
56
3
58
3
53
3
56
3
59
3
49
3
52
3
58
3
57
3
60
3
59
3
56
3
53
3
62
3
54
3
54
3
63
3
56
3
64
3
59
3
53
3
56
3
55
3
52
3
49
3
47
3
45
3
46
3
53
3
44
3
44
3
38
3
31
3
30
3
37
3
30
3
29
3
35
3
33
3
38
3
38
3
29
3
28
3
27
3
28
3
36
3
41
3
30
3
31
3
34
3
36
3
37
3
41
3
36
3
36
3
43
3
37
3
44
3
47
3
52
3
56
3
65
3
68
3
80
3
91
3
89
3
100
3
103
3
100
3
101
3
114
3
103
3
100
3
103
3
95
3
89
3
81
3
68
3
56
3
55
3
48
3
44
3
50
3
45
3
44
3
51
3
44
3
41
3
43
3
37
3
36
3
39
3
32
3
28
3
33
3
29
3
30
3
34
3
34
3
28
3
34
3
30
3
28
3
27
3
24
3
28
3
32
3
30
3
29
3
35
3
30
3
30
3
38
3
31
3
28
3
43
3
49
3
94
3
179
3
28
4
136
4
239
4
52
5
116
5
167
5
191
5
232
5
239
5
124
5
204
4
67
4
142
3
176
2
102
2
108
2
141
2
189
2
229
2
8
3
42
3
54
3
80
3
98
3
100
3
104
3
103
3
92
3
94
3
99
3
96
3
105
3
113
3
116
3
124
3
131
3
132
3
136
3
146
3
148
3
152
3
162
3
161
3
169
3
178
3
177
3
177
3
186
3
185
3
196
3
203
3
205
3
209
3
224
3
222
3
224
3
234
3
228
3
236
3
247
3
248
3
255
3
3
4
9
4
16
4
26
4
28
4
36
4
47
4
46
4
52
4
67
4
69
4
72
4
78
4
69
4
68
4
78
4
76
4
77
4
85
4
81
4
85
4
87
4
86
4
88
4
86
4
76
4
68
4
71
4
63
4
56
4
62
4
56
4
57
4
55
4
52
4
44
4
45
4
31
4
28
4
20
4
8
4
254
3
253
3
240
3
230
3
230
3
221
3
220
3
218
3
208
3
202
3
205
3
200
3
192
3
197
3
189
3
192
3
195
3
188
3
189
3
192
3
182
3
181
3
186
3
184
3
180
3
186
3
188
3
188
3
195
3
191
3
188
3
195
3
191
3
196
3
206
3
201
3
204
3
209
3
205
3
205
3
213
3
206
3
212
3
215
3
204
3
206
3
213
3
212
3
216
3
214
3
212
3
217
3
222
3
216
3
220
3
219
3
214
3
216
3
219
3
220
3
224
3
230
3
228
3
225
3
231
3
229
3
228
3
227
3
220
3
226
3
231
3
228
3
224
3
226
3
221
3
224
3
226
3
217
3
222
3
227
3
220
3
222
3
235
3
236
3
240
3
237
3
231
3
241
3
240
3
232
3
252
3
6
4
255
3
5
4
13
4
14
4
20
4
40
4
31
4
32
4
43
4
45
4
41
4
46
4
48
4
44
4
42
4
33
4
24
4
18
4
4
4
1
4
250
3
244
3
245
3
239
3
233
3
244
3
250
3
240
3
237
3
234
3
229
3
230
3
234
3
225
3
228
3
237
3
233
3
236
3
242
3
236
3
237
3
242
3
238
3
241
3
245
3
249
3
252
3
251
3
246
3
244
3
247
3
246
3
249
3
255
3
248
3
254
3
9
4
22
4
72
4
150
4
252
4
109
5
215
5
29
6
78
6
103
6
116
6
118
6
67
6
172
5
12
5
135
4
177
3
16
3
245
2
1
3
52
3
106
3
148
3
184
3
226
3
246
3
5
4
29
4
31
4
28
4
33
4
28
4
36
4
42
4
36
4
36
4
38
4
30
4
29
4
33
4
36
4
40
4
49
4
47
4
52
4
55
4
56
4
64
4
71
4
73
4
81
4
87
4
84
4
92
4
99
4
100
4
104
4
107
4
104
4
108
4
114
4
113
4
120
4
131
4
132
4
132
4
135
4
132
4
140
4
151
4
152
4
156
4
166
4
166
4
175
4
186
4
181
4
185
4
195
4
188
4
192
4
195
4
193
4
189
4
195
4
191
4
188
4
192
4
192
4
188
4
193
4
182
4
174
4
167
4
148
4
148
4
155
4
148
4
144
4
143
4
136
4
129
4
127
4
112
4
110
4
107
4
92
4
79
4
77
4
63
4
60
4
50
4
38
4
29
4
32
4
20
4
12
4
11
4
5
4
254
3
254
3
244
3
244
3
243
3
238
3
236
3
238
3
230
3
229
3
231
3
228
3
228
3
234
3
228
3
225
3
226
3
221
3
228
3
231
3
230
3
228
3
230
3
228
3
229
3
235
3
236
3
236
3
243
3
236
3
238
3
242
3
236
3
238
3
243
3
236
3
232
3
239
3
236
3
237
3
245
3
241
3
240
3
245
3
240
3
240
3
242
3
236
3
236
3
239
3
236
3
233
3
243
3
237
3
238
3
242
3
236
3
236
3
243
3
239
3
240
3
241
3
236
3
241
3
245
3
240
3
241
3
246
3
240
3
237
3
243
3
237
3
236
3
239
3
237
3
238
3
247
3
246
3
252
3
6
4
4
4
8
4
17
4
20
4
25
4
27
4
22
4
22
4
26
4
20
4
25
4
23
4
20
4
22
4
26
4
14
4
8
4
3
4
248
3
246
3
246
3
236
3
236
3
239
3
236
3
238
3
239
3
236
3
234
3
233
3
229
3
228
3
227
3
221
3
222
3
227
3
223
3
225
3
226
3
220
3
221
3
224
3
224
3
220
3
223
3
224
3
228
3
231
3
232
3
232
3
230
3
224
3
224
3
227
3
230
3
244
3
32
4
92
4
188
4
54
5
165
5
20
6
96
6
116
6
148
6
151
6
116
6
254
5
98
5
204
4
15
4
69
3
236
2
228
2
254
2
44
3
92
3
138
3
168
3
200
3
225
3
237
3
253
3
10
4
4
4
4
4
10
4
0
4
1
4
13
4
12
4
20
4
27
4
22
4
28
4
37
4
40
4
36
4
46
4
39
4
44
4
54
4
54
4
64
4
73
4
72
4
72
4
73
4
72
4
76
4
83
4
84
4
88
4
93
4
92
4
98
4
102
4
100
4
102
4
111
4
112
4
120
4
126
4
126
4
133
4
139
4
141
4
144
4
155
4
156
4
156
4
163
4
164
4
164
4
174
4
168
4
168
4
173
4
168
4
168
4
171
4
164
4
160
4
161
4
153
4
142
4
146
4
140
4
140
4
135
4
132
4
128
4
123
4
116
4
109
4
111
4
101
4
94
4
91
4
80
4
76
4
66
4
49
4
48
4
43
4
33
4
28
4
23
4
12
4
8
4
2
4
244
3
241
3
243
3
232
3
232
3
235
3
232
3
232
3
230
3
225
3
220
3
219
3
217
3
221
3
227
3
225
3
220
3
227
3
218
3
213
3
225
3
225
3
223
3
229
3
222
3
224
3
230
3
229
3
228
3
237
3
236
3
236
3
239
3
237
3
237
3
247
3
245
3
244
3
253
3
248
3
248
3
251
3
252
3
248
3
254
3
252
3
252
3
250
3
244
3
252
3
3
4
4
4
0
4
11
4
1
4
253
3
252
3
248
3
245
3
250
3
246
3
248
3
251
3
249
3
248
3
251
3
252
3
248
3
251
3
240
3
244
3
247
3
244
3
244
3
247
3
246
3
248
3
255
3
4
4
5
4
9
4
9
4
12
4
19
4
16
4
20
4
23
4
28
4
37
4
47
4
48
4
48
4
53
4
52
4
56
4
55
4
46
4
46
4
51
4
41
4
40
4
34
4
20
4
20
4
14
4
4
4
0
4
7
4
6
4
8
4
15
4
8
4
8
4
7
4
254
3
255
3
7
4
5
4
5
4
6
4
253
3
4
4
7
4
5
4
4
4
6
4
1
4
0
4
2
4
253
3
4
4
7
4
4
4
8
4
9
4
4
4
4
4
7
4
6
4
12
4
30
4
68
4
142
4
251
4
109
5
222
5
55
6
116
6
152
6
187
6
213
6
224
6
127
6
196
5
40
5
139
4
157
3
57
3
55
3
72
3
116
3
159
3
183
3
217
3
242
3
253
3
20
4
26
4
24
4
22
4
23
4
21
4
24
4
31
4
23
4
24
4
32
4
29
4
29
4
38
4
32
4
40
4
49
4
48
4
52
4
59
4
54
4
60
4
64
4
60
4
64
4
71
4
69
4
73
4
79
4
76
4
78
4
83
4
86
4
89
4
98
4
100
4
108
4
113
4
112
4
124
4
129
4
120
4
128
4
135
4
133
4
140
4
142
4
144
4
148
4
154
4
150
4
150
4
154
4
152
4
156
4
155
4
149
4
149
4
157
4
152
4
148
4
155
4
148
4
144
4
147
4
140
4
133
4
135
4
127
4
124
4
117
4
105
4
94
4
91
4
84
4
76
4
75
4
63
4
57
4
55
4
44
4
36
4
35
4
20
4
8
4
11
4
248
3
244
3
245
3
232
3
220
3
219
3
214
3
212
3
211
3
204
3
204
3
199
3
193
3
192
3
195
3
197
3
192
3
202
3
193
3
192
3
199
3
196
3
196
3
199
3
196
3
193
3
201
3
197
3
200
3
207
3
205
3
204
3
210
3
204
3
204
3
210
3
212
3
216
3
218
3
213
3
212
3
222
3
216
3
222
3
224
3
216
3
216
3
226
3
224
3
224
3
224
3
220
3
223
3
227
3
223
3
220
3
219
3
215
3
216
3
215
3
212
3
213
3
219
3
209
3
213
3
218
3
216
3
216
3
221
3
217
3
216
3
218
3
212
3
220
3
219
3
216
3
220
3
225
3
217
3
223
3
225
3
220
3
216
3
222
3
217
3
222
3
225
3
221
3
229
3
239
3
236
3
244
3
0
4
4
4
12
4
15
4
12
4
16
4
23
4
20
4
20
4
19
4
17
4
14
4
7
4
252
3
248
3
245
3
236
3
232
3
230
3
220
3
221
3
225
3
216
3
216
3
219
3
208
3
206
3
211
3
208
3
208
3
215
3
213
3
212
3
215
3
204
3
204
3
209
3
209
3
212
3
215
3
212
3
210
3
214
3
212
3
209
3
214
3
208
3
201
3
210
3
205
3
204
3
210
3
225
3
14
4
90
4
188
4
56
5
165
5
237
5
36
6
75
6
95
6
124
6
133
6
24
6
100
5
210
4
52
4
86
3
245
2
237
2
8
3
57
3
94
3
128
3
161
3
172
3
192
3
215
3
220
3
220
3
222
3
214
3
213
3
219
3
212
3
212
3
224
3
220
3
228
3
233
3
228
3
225
3
230
3
225
3
228
3
235
3
237
3
241
3
2
4
0
4
4
4
10
4
8
4
12
4
15
4
13
4
16
4
23
4
21
4
28
4
34
4
36
4
36
4
47
4
45
4
52
4
58
4
53
4
60
4
64
4
64
4
64
4
75
4
77
4
84
4
91
4
88
4
93
4
98
4
94
4
97
4
99
4
89
4
92
4
94
4
84
4
85
4
93
4
84
4
77
4
81
4
76
4
72
4
74
4
68
4
68
4
65
4
52
4
45
4
39
4
36
4
32
4
32
4
20
4
9
4
5
4
245
3
240
3
239
3
228
3
220
3
215
3
204
3
196
3
190
3
176
3
168
3
167
3
152
3
148
3
154
3
148
3
150
3
151
3
142
3
141
3
145
3
136
3
136
3
137
3
133
3
142
3
150
3
142
3
142
3
147
3
145
3
144
3
147
3
144
3
142
3
154
3
152
3
152
3
153
3
151
3
153
3
157
3
150
3
156
3
157
3
156
3
158
3
162
3
157
3
154
3
162
3
161
3
161
3
169
3
164
3
165
3
170
3
165
3
164
3
163
3
162
3
164
3
163
3
158
3
156
3
161
3
160
3
156
3
160
3
158
3
158
3
160
3
153
3
157
3
160
3
161
3
161
3
161
3
157
3
160
3
163
3
156
3
152
3
158
3
156
3
158
3
157
3
178
3
183
3
168
3
169
3
183
3
177
3
187
3
194
3
190
3
196
3
205
3
213
3
216
3
225
3
218
3
212
3
214
3
223
3
216
3
207
3
219
3
209
3
205
3
191
3
185
3
176
3
174
3
160
3
164
3
166
3
161
3
168
3
167
3
168
3
164
3
165
3
152
3
148
3
151
3
149
3
152
3
154
3
149
3
152
3
155
3
152
3
149
3
158
3
153
3
158
3
164
3
161
3
158
3
159
3
156
3
152
3
155
3
153
3
152
3
155
3
157
3
169
3
181
3
215
3
36
4
134
4
244
4
89
5
175
5
223
5
253
5
23
6
41
6
44
6
211
5
37
5
140
4
255
3
33
3
198
2
206
2
222
2
6
3
55
3
84
3
124
3
151
3
160
3
181
3
189
3
189
3
192
3
198
3
196
3
197
3
205
3
200
3
200
3
211
3
210
3
213
3
224
3
221
3
224
3
230
3
228
3
229
3
239
3
236
3
244
3
247
3
244
3
249
3
5
4
4
4
8
4
15
4
12
4
16
4
23
4
22
4
24
4
32
4
31
4
36
4
43
4
44
4
45
4
54
4
52
4
56
4
67
4
68
4
70
4
77
4
73
4
78
4
85
4
84
4
93
4
97
4
92
4
94
4
99
4
93
4
94
4
99
4
92
4
92
4
99
4
92
4
92
4
94
4
81
4
78
4
77
4
63
4
64
4
58
4
45
4
44
4
45
4
33
4
30
4
27
4
13
4
8
4
255
3
240
3
232
3
231
3
220
3
208
3
205
3
190
3
188
3
183
3
173
3
165
3
163
3
156
3
156
3
155
3
149
3
148
3
143
3
134
3
136
3
138
3
136
3
140
3
150
3
145
3
136
3
139
3
127
3
125
3
130
3
132
3
132
3
135
3
126
3
132
3
139
3
128
3
128
3
135
3
132
3
133
3
139
3
132
3
133
3
141
3
133
3
136
3
143
3
140
3
143
3
146
3
140
3
140
3
141
3
133
3
136
3
141
3
133
3
137
3
141
3
133
3
136
3
141
3
136
3
136
3
135
3
129
3
129
3
135
3
137
3
136
3
141
3
133
3
133
3
134
3
132
3
132
3
131
3
127
3
136
3
138
3
132
3
130
3
135
3
136
3
140
3
147
3
148
3
156
3
159
3
152
3
148
3
154
3
158
3
166
3
177
3
180
3
184
3
187
3
177
3
182
3
186
3
176
3
172
3
175
3
168
3
159
3
158
3
148
3
148
3
149
3
140
3
140
3
146
3
140
3
140
3
141
3
137
3
136
3
135
3
126
3
126
3
126
3
119
3
118
3
122
3
116
3
116
3
119
3
118
3
116
3
119
3
116
3
116
3
119
3
116
3
117
3
123
3
116
3
116
3
115
3
112
3
116
3
119
3
124
3
132
3
167
3
228
3
68
4
183
4
29
5
116
5
175
5
196
5
212
5
235
5
232
5
164
5
3
5
104
4
228
3
25
3
168
2
160
2
187
2
232
2
20
3
62
3
92
3
120
3
143
3
160
3
168
3
178
3
172
3
172
3
175
3
168
3
172
3
175
3
172
3
176
3
183
3
181
3
189
3
195
3
193
3
204
3
213
3
205
3
209
3
211
3
212
3
220
3
227
3
228
3
228
3
239
3
240
3
245
3
251
3
252
3
254
3
10
4
9
4
12
4
18
4
17
4
24
4
32
4
30
4
36
4
45
4
45
4
52
4
63
4
65
4
68
4
75
4
76
4
80
4
91
4
85
4
88
4
96
4
92
4
92
4
98
4
93
4
93
4
96
4
92
4
92
4
91
4
85
4
84
4
87
4
80
4
76
4
74
4
65
4
57
4
59
4
53
4
48
4
43
4
32
4
26
4
27
4
17
4
12
4
5
4
252
3
241
3
234
3
225
3
220
3
218
3
205
3
200
3
197
3
185
3
180
3
181
3
172
3
169
3
167
3
164
3
160
3
166
3
160
3
158
3
165
3
164
3
169
3
171
3
168
3
168
3
174
3
172
3
172
3
175
3
169
3
169
3
175
3
168
3
168
3
175
3
172
3
173
3
178
3
173
3
172
3
177
3
172
3
173
3
179
3
180
3
180
3
186
3
183
3
180
3
187
3
182
3
184
3
186
3
182
3
184
3
189
3
185
3
188
3
189
3
184
3
188
3
195
3
191
3
192
3
193
3
185
3
184
3
187
3
180
3
180
3
183
3
176
3
172
3
178
3
180
3
180
3
183
3
180
3
176
3
181
3
180
3
181
3
183
3
184
3
188
3
195
3
196
3
200
3
203
3
200
3
205
3
217
3
216
3
217
3
225
3
220
3
224
3
231
3
225
3
220
3
225
3
220
3
220
3
211
3
197
3
196
3
192
3
181
3
175
3
175
3
173
3
174
3
178
3
172
3
172
3
173
3
166
3
165
3
167
3
164
3
164
3
167
3
160
3
160
3
167
3
164
3
164
3
166
3
164
3
166
3
169
3
164
3
168
3
170
3
168
3
165
3
171
3
168
3
172
3
179
3
172
3
176
3
191
3
216
3
24
4
123
4
229
4
80
5
163
5
209
5
237
5
0
6
20
6
20
6
211
5
45
5
153
4
30
4
76
3
220
2
224
2
245
2
36
3
87
3
116
3
152
3
183
3
200
3
220
3
231
3
232
3
233
3
242
3
236
3
236
3
234
3
229
3
232
3
239
3
236
3
240
3
246
3
244
3
244
3
0
4
0
4
4
4
11
4
12
4
16
4
23
4
21
4
28
4
34
4
36
4
40
4
51
4
52
4
60
4
71
4
72
4
76
4
85
4
84
4
90
4
103
4
101
4
108
4
117
4
112
4
113
4
123
4
125
4
133
4
142
4
142
4
148
4
151
4
153
4
156
4
166
4
167
4
168
4
173
4
169
4
172
4
171
4
168
4
172
4
175
4
172
4
172
4
171
4
164
4
168
4
167
4
161
4
156
4
155
4
145
4
140
4
143
4
136
4
133
4
123
4
112
4
105
4
99
4
92
4
84
4
79
4
68
4
64
4
61
4
49
4
44
4
47
4
40
4
33
4
32
4
24
4
16
4
15
4
8
4
12
4
15
4
5
4
6
4
7
4
4
4
4
4
10
4
4
4
0
4
11
4
4
4
5
4
7
4
5
4
6
4
15
4
13
4
12
4
14
4
12
4
15
4
18
4
14
4
16
4
17
4
12
4
13
4
17
4
8
4
14
4
19
4
16
4
16
4
22
4
20
4
21
4
23
4
24
4
24
4
29
4
24
4
22
4
30
4
25
4
22
4
27
4
24
4
24
4
29
4
30
4
28
4
33
4
24
4
28
4
32
4
30
4
29
4
35
4
28
4
31
4
37
4
28
4
24
4
28
4
24
4
28
4
38
4
36
4
46
4
50
4
46
4
46
4
51
4
45
4
52
4
59
4
63
4
72
4
75
4
73
4
76
4
83
4
77
4
73
4
75
4
73
4
76
4
70
4
56
4
46
4
47
4
41
4
40
4
45
4
44
4
36
4
39
4
32
4
40
4
43
4
36
4
30
4
37
4
28
4
28
4
30
4
31
4
32
4
39
4
36
4
36
4
39
4
32
4
30
4
38
4
36
4
37
4
43
4
44
4
40
4
45
4
41
4
46
4
51
4
48
4
52
4
62
4
65
4
100
4
175
4
8
5
126
5
247
5
88
6
152
6
173
6
181
6
176
6
153
6
40
6
144
5
2
5
84
4
137
3
50
3
52
3
84
3
147
3
196
3
240
3
25
4
53
4
76
4
96
4
100
4
104
4
114
4
110
4
116
4
122
4
116
4
120
4
130
4
127
4
129
4
138
4
136
4
142
4
148
4
149
4
156
4
162
4
164
4
172
4
171
4
172
4
172
4
183
4
184
4
188
4
195
4
188
4
188
4
197
4
196
4
200
4
211
4
208
4
212
4
219
4
221
4
222
4
235
4
232
4
236
4
243
4
241
4
244
4
250
4
252
4
4
5
14
5
20
5
28
5
30
5
24
5
20
5
27
5
24
5
22
5
23
5
21
5
28
5
38
5
28
5
22
5
23
5
9
5
1
5
5
5
252
4
252
4
255
4
244
4
238
4
239
4
228
4
222
4
215
4
205
4
200
4
195
4
182
4
180
4
179
4
169
4
164
4
151
4
136
4
129
4
131
4
116
4
110
4
110
4
104
4
93
4
91
4
81
4
76
4
79
4
68
4
64
4
69
4
69
4
68
4
73
4
72
4
68
4
69
4
62
4
64
4
69
4
60
4
57
4
59
4
56
4
60
4
59
4
60
4
60
4
59
4
52
4
52
4
55
4
53
4
56
4
58
4
52
4
52
4
63
4
60
4
64
4
67
4
60
4
56
4
61
4
57
4
60
4
63
4
60
4
60
4
64
4
60
4
56
4
59
4
60
4
64
4
67
4
61
4
56
4
55
4
52
4
52
4
50
4
44
4
44
4
51
4
48
4
49
4
47
4
44
4
40
4
43
4
37
4
40
4
44
4
44
4
53
4
59
4
54
4
60
4
61
4
57
4
68
4
75
4
69
4
72
4
73
4
69
4
73
4
67
4
61
4
58
4
62
4
60
4
56
4
51
4
25
4
39
4
40
4
31
4
32
4
19
4
29
4
29
4
28
4
32
4
36
4
25
4
24
4
21
4
8
4
13
4
6
4
253
3
3
4
12
4
0
4
2
4
3
4
245
3
248
3
251
3
252
3
254
3
247
3
251
3
248
3
242
3
254
3
250
3
251
3
248
3
250
3
251
3
250
3
27
4
94
4
172
4
32
5
151
5
8
6
94
6
122
6
138
6
142
6
119
6
24
6
123
5
224
4
60
4
102
3
240
2
219
2
232
2
18
3
67
3
114
3
146
3
174
3
199
3
218
3
237
3
246
3
246
3
242
3
246
3
246
3
245
3
247
3
247
3
246
3
250
3
249
3
251
3
254
3
0
4
6
4
10
4
10
4
9
4
15
4
13
4
17
4
22
4
22
4
27
4
30
4
30
4
30
4
34
4
39
4
38
4
42
4
42
4
43
4
50
4
50
4
54
4
59
4
63
4
66
4
70
4
71
4
71
4
83
4
85
4
83
4
90
4
90
4
92
4
94
4
96
4
95
4
99
4
102
4
101
4
102
4
99
4
100
4
102
4
100
4
95
4
94
4
88
4
85
4
82
4
78
4
72
4
69
4
62
4
58
4
54
4
42
4
36
4
38
4
27
4
20
4
15
4
6
4
253
3
251
3
242
3
228
3
226
3
222
3
215
3
211
3
203
3
198
3
193
3
184
3
181
3
179
3
172
3
168
3
163
3
160
3
155
3
155
3
155
3
155
3
155
3
154
3
154
3
158
3
153
3
150
3
154
3
151
3
150
3
153
3
154
3
153
3
158
3
155
3
152
3
158
3
154
3
155
3
158
3
155
3
154
3
160
3
160
3
159
3
166
3
162
3
162
3
167
3
170
3
172
3
175
3
174
3
174
3
177
3
174
3
172
3
176
3
177
3
174
3
178
3
174
3
171
3
174
3
172
3
172
3
174
3
175
3
172
3
174
3
170
3
167
3
170
3
170
3
168
3
174
3
168
3
166
3
167
3
165
3
161
3
163
3
165
3
168
3
175
3
175
3
179
3
186
3
190
3
192
3
199
3
198
3
202
3
211
3
215
3
216
3
217
3
210
3
212
3
210
3
211
3
208
3
211
3
210
3
201
3
194
3
178
3
177
3
178
3
170
3
167
3
171
3
166
3
167
3
171
3
170
3
166
3
168
3
162
3
154
3
155
3
155
3
158
3
162
3
156
3
157
3
162
3
158
3
158
3
155
3
160
3
157
3
160
3
155
3
150
3
152
3
150
3
147
3
154
3
155
3
156
3
162
3
160
3
160
3
174
3
209
3
26
4
139
4
7
5
118
5
206
5
3
6
33
6
59
6
86
6
89
6
8
6
85
5
182
4
38
4
68
3
204
2
194
2
215
2
0
3
50
3
80
3
114
3
142
3
158
3
172
3
182
3
182
3
178
3
182
3
182
3
180
3
185
3
186
3
185
3
187
3
191
3
192
3
195
3
193
3
193
3
203
3
203
3
202
3
208
3
213
3
212
3
215
3
224
3
224
3
227
3
231
3
231
3
240
3
242
3
244
3
251
3
3
4
4
4
6
4
10
4
8
4
15
4
19
4
25
4
34
4
34
4
40
4
46
4
50
4
52
4
59
4
59
4
64
4
75
4
81
4
84
4
90
4
90
4
92
4
94
4
90
4
89
4
88
4
88
4
84
4
86
4
80
4
74
4
75
4
75
4
68
4
70
4
66
4
52
4
50
4
46
4
36
4
38
4
32
4
25
4
22
4
13
4
0
4
250
3
239
3
228
3
226
3
218
3
212
3
208
3
200
3
194
3
187
3
182
3
176
3
174
3
165
3
156
3
155
3
153
3
148
3
150
3
149
3
144
3
147
3
144
3
138
3
139
3
140
3
137
3
144
3
140
3
137
3
139
3
137
3
140
3
144
3
144
3
144
3
154
3
148
3
149
3
154
3
150
3
149
3
154
3
152
3
152
3
158
3
158
3
155
3
155
3
158
3
159
3
160
3
160
3
159
3
162
3
160
3
159
3
162
3
158
3
157
3
158
3
158
3
155
3
160
3
155
3
154
3
155
3
154
3
150
3
152
3
154
3
152
3
154
3
154
3
149
3
152
3
146
3
144
3
146
3
142
3
147
3
147
3
147
3
144
3
147
3
146
3
146
3
158
3
161
3
162
3
169
3
169
3
173
3
179
3
186
3
187
3
192
3
190
3
184
3
186
3
187
3
184
3
185
3
185
3
178
3
178
3
169
3
159
3
160
3
156
3
148
3
147
3
144
3
143
3
147
3
146
3
142
3
142
3
138
3
136
3
136
3
133
3
130
3
134
3
131
3
130
3
131
3
131
3
129
3
131
3
129
3
127
3
130
3
126
3
124
3
130
3
127
3
126
3
131
3
131
3
127
3
135
3
131
3
130
3
138
3
143
3
170
3
239
3
82
4
202
4
56
5
136
5
189
5
231
5
253
5
22
6
38
6
227
5
52
5
154
4
21
4
61
3
187
2
170
2
188
2
230
2
15
3
45
3
82
3
104
3
122
3
144
3
148
3
151
3
154
3
152
3
152
3
155
3
154
3
152
3
155
3
152
3
155
3
160
3
160
3
159
3
163
3
163
3
167
3
175
3
177
3
180
3
184
3
186
3
184
3
194
3
197
3
200
3
203
3
209
3
208
3
218
3
216
3
218
3
227
3
226
3
228
3
235
3
238
3
242
3
250
3
254
3
0
4
7
4
8
4
12
4
19
4
22
4
26
4
38
4
41
4
39
4
43
4
47
4
48
4
51
4
52
4
49
4
51
4
55
4
52
4
54
4
50
4
45
4
43
4
42
4
36
4
38
4
34
4
25
4
24
4
16
4
7
4
3
4
0
4
248
3
247
3
238
3
231
3
226
3
216
3
209
3
208
3
200
3
190
3
186
3
178
3
170
3
163
3
160
3
155
3
150
3
143
3
137
3
139
3
134
3
129
3
131
3
127
3
123
3
126
3
127
3
126
3
123
3
123
3
119
3
122
3
118
3
118
3
119
3
119
3
116
3
119
3
115
3
115
3
120
3
120
3
117
3
123
3
121
3
117
3
120
3
120
3
117
3
119
3
116
3
117
3
122
3
117
3
119
3
123
3
121
3
124
3
126
3
126
3
126
3
126
3
126
3
128
3
131
3
130
3
127
3
130
3
128
3
125
3
130
3
127
3
124
3
126
3
121
3
119
3
123
3
122
3
120
3
122
3
123
3
120
3
123
3
118
3
116
3
115
3
115
3
114
3
115
3
115
3
117
3
122
3
122
3
124
3
131
3
134
3
134
3
138
3
141
3
143
3
146
3
147
3
149
3
150
3
146
3
145
3
142
3
143
3
139
3
142
3
136
3
131
3
122
3
114
3
106
3
107
3
99
3
91
3
97
3
94
3
90
3
94
3
88
3
82
3
79
3
73
3
71
3
74
3
72
3
69
3
70
3
67
3
62
3
59
3
58
3
58
3
62
3
57
3
55
3
54
3
51
3
52
3
51
3
50
3
48
3
49
3
48
3
48
3
48
3
46
3
48
3
58
3
90
3
153
3
2
4
114
4
219
4
43
5
94
5
123
5
143
5
166
5
169
5
98
5
180
4
28
4
154
3
200
2
94
2
88
2
114
2
156
2
200
2
228
2
3
3
30
3
51
3
68
3
78
3
76
3
74
3
75
3
75
3
76
3
83
3
84
3
88
3
94
3
94
3
95
3
102
3
104
3
106
3
111
3
114
3
113
3
120
3
122
3
119
3
126
3
127
3
130
3
138
3
139
3
140
3
150
3
150
3
157
3
168
3
169
3
172
3
179
3
188
3
190
3
198
3
203
3
203
3
215
3
215
3
223
3
234
3
235
3
238
3
243
3
247
3
246
3
255
3
3
4
6
4
11
4
13
4
12
4
11
4
10
4
9
4
11
4
11
4
8
4
10
4
4
4
255
3
3
4
2
4
251
3
250
3
246
3
238
3
234
3
229
3
222
3
222
3
215
3
210
3
210
3
200
3
192
3
190
3
180
3
172
3
166
3
155
3
148
3
147
3
134
3
126
3
123
3
122
3
114
3
114
3
107
3
102
3
103
3
97
3
92
3
91
3
89
3
88
3
90
3
90
3
90
3
91
3
91
3
89
3
94
3
98
3
92
3
98
3
94
3
92
3
95
3
98
3
98
3
106
3
102
3
102
3
103
3
104
3
102
3
107
3
105
3
104
3
111
3
110
3
108
3
110
3
110
3
107
3
112
3
115
3
109
3
114
3
112
3
113
3
119
3
120
3
120
3
122
3
123
3
124
3
123
3
123
3
123
3
122
3
121
3
118
3
117
3
114
3
114
3
115
3
116
3
115
3
118
3
115
3
114
3
118
3
117
3
114
3
119
3
118
3
114
3
118
3
114
3
112
3
115
3
118
3
118
3
126
3
127
3
134
3
138
3
144
3
148
3
158
3
162
3
163
3
171
3
172
3
170
3
170
3
170
3
168
3
167
3
166
3
164
3
162
3
149
3
133
3
134
3
127
3
122
3
122
3
118
3
118
3
120
3
118
3
114
3
115
3
111
3
107
3
110
3
106
3
105
3
111
3
108
3
109
3
114
3
115
3
119
3
117
3
116
3
111
3
112
3
119
3
107
3
108
3
115
3
109
3
105
3
121
3
115
3
115
3
117
3
119
3
120
3
126
3
142
3
196
3
20
4
128
4
248
4
83
5
139
5
177
5
186
5
199
5
206
5
172
5
24
5
114
4
242
3
43
3
140
2
117
2
145
2
196
2
242
2
23
3
58
3
84
3
109
3
132
3
143
3
150
3
154
3
158
3
162
3
160
3
160
3
159
3
164
3
168
3
167
3
170
3
174
3
180
3
184
3
186
3
189
3
188
3
195
3
198
3
200
3
204
3
206
3
208
3
216
3
222
3
228
3
234
3
236
3
237
3
244
3
245
3
250
3
2
4
7
4
16
4
24
4
26
4
26
4
30
4
36
4
42
4
42
4
47
4
47
4
53
4
61
4
68
4
72
4
76
4
78
4
80
4
87
4
88
4
88
4
93
4
92
4
94
4
95
4
92
4
98
4
94
4
90
4
88
4
81
4
76
4
74
4
72
4
72
4
66
4
62
4
64
4
60
4
49
4
46
4
45
4
37
4
32
4
24
4
14
4
6
4
254
3
240
3
232
3
226
3
219
3
212
3
212
3
203
3
196
3
190
3
185
3
184
3
182
3
178
3
174
3
170
3
170
3
168
3
166
3
169
3
172
3
178
3
181
3
182
3
184
3
181
3
182
3
185
3
183
3
184
3
185
3
181
3
180
3
185
3
186
3
188
3
190
3
193
3
194
3
200
3
198
3
194
3
200
3
199
3
200
3
206
3
204
3
208
3
213
3
214
3
213
3
216
3
219
3
222
3
221
3
220
3
221
3
222
3
220
3
218
3
222
3
224
3
218
3
221
3
222
3
218
3
224
3
228
3
232
3
232
3
236
3
236
3
238
3
241
3
242
3
235
3
234
3
239
3
242
3
247
3
246
3
248
3
248
3
252
3
4
4
6
4
4
4
14
4
21
4
20
4
24
4
27
4
34
4
37
4
39
4
46
4
45
4
52
4
52
4
47
4
42
4
42
4
47
4
54
4
46
4
42
4
23
4
22
4
24
4
25
4
24
4
29
4
32
4
30
4
26
4
33
4
30
4
28
4
33
4
36
4
28
4
22
4
24
4
18
4
19
4
24
4
25
4
25
4
26
4
20
4
28
4
34
4
33
4
29
4
30
4
34
4
35
4
32
4
36
4
36
4
40
4
42
4
36
4
32
4
40
4
45
4
72
4
130
4
212
4
70
5
198
5
58
6
149
6
185
6
194
6
186
6
157
6
71
6
178
5
34
5
133
4
170
3
44
3
30
3
44
3
84
3
135
3
182
3
224
3
2
4
32
4
50
4
69
4
80
4
88
4
82
4
84
4
82
4
81
4
86
4
97
4
97
4
108
4
118
4
118
4
120
4
122
4
118
4
122
4
129
4
133
4
138
4
140
4
142
4
148
4
156
4
157
4
167
4
168
4
164
4
158
4
166
4
169
4
176
4
180
4
181
4
182
4
192
4
199
4
208
4
212
4
215
4
216
4
223
4
228
4
228
4
228
4
233
4
244
4
246
4
245
4
252
4
253
4
254
4
8
5
14
5
7
5
8
5
6
5
2
5
6
5
10
5
10
5
6
5
2
5
250
4
244
4
243
4
236
4
234
4
230
4
225
4
220
4
220
4
205
4
205
4
197
4
189
4
180
4
175
4
170
4
162
4
154
4
145
4
136
4
132
4
124
4
120
4
108
4
101
4
88
4
79
4
78
4
70
4
68
4
67
4
54
4
42
4
28
4
26
4
24
4
25
4
16
4
19
4
22
4
26
4
26
4
26
4
26
4
24
4
31
4
32
4
34
4
36
4
32
4
31
4
23
4
26
4
25
4
29
4
32
4
36
4
38
4
40
4
40
4
39
4
36
4
36
4
41
4
42
4
41
4
37
4
34
4
36
4
39
4
42
4
44
4
45
4
42
4
34
4
28
4
26
4
28
4
29
4
32
4
30
4
33
4
28
4
34
4
32
4
26
4
24
4
20
4
16
4
19
4
20
4
24
4
24
4
16
4
14
4
20
4
20
4
16
4
14
4
20
4
22
4
28
4
27
4
24
4
20
4
21
4
30
4
32
4
32
4
32
4
32
4
37
4
44
4
50
4
52
4
50
4
52
4
52
4
50
4
46
4
47
4
42
4
46
4
44
4
38
4
24
4
9
4
8
4
6
4
5
4
0
4
4
4
4
4
6
4
8
4
2
4
250
3
252
3
246
3
244
3
248
3
251
3
248
3
248
3
245
3
244
3
244
3
240
3
242
3
238
3
239
3
244
3
244
3
244
3
246
3
248
3
247
3
248
3
248
3
246
3
250
3
248
3
247
3
250
3
0
4
25
4
90
4
182
4
42
5
164
5
21
6
100
6
140
6
164
6
172
6
162
6
86
6
182
5
24
5
132
4
166
3
32
3
2
3
7
3
46
3
101
3
129
3
160
3
191
3
213
3
224
3
242
3
250
3
252
3
254
3
0
4
0
4
0
4
6
4
6
4
10
4
12
4
16
4
15
4
17
4
18
4
24
4
29
4
28
4
30
4
34
4
36
4
46
4
52
4
56
4
56
4
58
4
60
4
66
4
65
4
66
4
72
4
70
4
72
4
78
4
80
4
86
4
88
4
93
4
96
4
96
4
103
4
110
4
113
4
113
4
122
4
126
4
132
4
140
4
142
4
140
4
144
4
146
4
149
4
150
4
152
4
151
4
150
4
152
4
151
4
152
4
152
4
150
4
146
4
142
4
139
4
134
4
130
4
124
4
122
4
118
4
113
4
102
4
98
4
94
4
88
4
82
4
75
4
68
4
59
4
55
4
48
4
40
4
33
4
24
4
15
4
5
4
250
3
246
3
244
3
239
3
232
3
225
3
220
3
216
3
210
3
208
3
206
3
204
3
200
3
202
3
199
3
198
3
200
3
193
3
193
3
193
3
193
3
196
3
195
3
198
3
196
3
194
3
196
3
200
3
203
3
204
3
204
3
202
3
202
3
200
3
202
3
203
3
204
3
206
3
208
3
206
3
207
3
205
3
204
3
201
3
205
3
208
3
207
3
202
3
200
3
202
3
206
3
208
3
207
3
202
3
200
3
202
3
201
3
200
3
200
3
198
3
198
3
196
3
194
3
192
3
186
3
187
3
186
3
186
3
189
3
190
3
188
3
188
3
188
3
186
3
185
3
184
3
184
3
178
3
176
3
178
3
179
3
180
3
181
3
181
3
180
3
175
3
175
3
174
3
180
3
185
3
190
3
198
3
201
3
206
3
210
3
215
3
216
3
214
3
212
3
216
3
219
3
221
3
216
3
218
3
215
3
214
3
206
3
200
3
182
3
170
3
166
3
166
3
170
3
169
3
170
3
170
3
168
3
160
3
158
3
151
3
150
3
145
3
145
3
150
3
154
3
156
3
152
3
149
3
140
3
132
3
132
3
130
3
132
3
130
3
134
3
132
3
136
3
140
3
140
3
136
3
132
3
130
3
132
3
135
3
138
3
136
3
138
3
140
3
166
3
225
3
60
4
179
4
39
5
142
5
204
5
252
5
28
6
51
6
76
6
60
6
166
5
246
4
114
4
182
3
248
2
182
2
192
2
213
2
246
2
24
3
55
3
86
3
106
3
123
3
136
3
146
3
145
3
138
3
138
3
141
3
146
3
142
3
143
3
140
3
132
3
127
3
132
3
136
3
139
3
138
3
139
3
140
3
148
3
155
3
155
3
156
3
156
3
156
3
160
3
164
3
169
3
170
3
176
3
176
3
178
3
182
3
187
3
188
3
188
3
190
3
200
3
207
3
213
3
218
3
226
3
229
3
232
3
236
3
233
3
234
3
235
3
240
3
242
3
244
3
248
3
250
3
254
3
3
4
4
4
8
4
7
4
2
4
2
4
253
3
250
3
254
3
247
3
244
3
242
3
242
3
236
3
234
3
229
3
224
3
221
3
213
3
212
3
206
3
195
3
184
3
177
3
167
3
164
3
158
3
150
3
142
3
134
3
125
3
114
3
106
3
101
3
94
3
88
3
80
3
76
3
67
3
64
3
58
3
56
3
49
3
48
3
50
3
46
3
47
3
46
3
41
3
40
3
41
3
39
3
36
3
42
3
41
3
40
3
41
3
40
3
44
3
46
3
44
3
48
3
47
3
45
3
42
3
40
3
39
3
38
3
40
3
43
3
40
3
46
3
43
3
42
3
38
3
40
3
42
3
46
3
45
3
46
3
47
3
48
3
48
3
42
3
42
3
44
3
44
3
43
3
46
3
50
3
49
3
48
3
47
3
49
3
48
3
42
3
39
3
42
3
42
3
41
3
44
3
40
3
37
3
34
3
32
3
31
3
30
3
36
3
37
3
36
3
30
3
29
3
24
3
26
3
25
3
30
3
30
3
31
3
36
3
36
3
37
3
37
3
44
3
51
3
53
3
54
3
62
3
66
3
72
3
75
3
76
3
82
3
86
3
92
3
92
3
97
3
94
3
100
3
95
3
88
3
79
3
69
3
56
3
56
3
49
3
44
3
43
3
43
3
40
3
46
3
46
3
44
3
38
3
39
3
36
3
31
3
32
3
32
3
30
3
31
3
37
3
45
3
38
3
34
3
32
3
24
3
23
3
29
3
19
3
29
3
32
3
30
3
30
3
36
3
27
3
25
3
23
3
26
3
22
3
19
3
30
3
29
3
55
3
110
3
190
3
52
4
166
4
7
5
72
5
121
5
158
5
175
5
198
5
182
5
45
5
125
4
251
3
75
3
135
2
71
2
80
2
108
2
154
2
184
2
220
2
255
2
16
3
36
3
51
3
55
3
56
3
62
3
63
3
64
3
64
3
63
3
65
3
67
3
70
3
74
3
82
3
88
3
86
3
90
3
88
3
90
3
99
3
102
3
100
3
102
3
102
3
103
3
111
3
115
3
115
3
118
3
118
3
119
3
130
3
133
3
138
3
143
3
145
3
150
3
150
3
147
3
144
3
150
3
156
3
155
3
158
3
160
3
165
3
167
3
170
3
167
3
174
3
174
3
176
3
182
3
179
3
179
3
184
3
185
3
181
3
178
3
170
3
167
3
168
3
170
3
171
3
170
3
166
3
163
3
166
3
163
3
155
3
154
3
142
3
139
3
136
3
131
3
128
3
126
3
118
3
104
3
99
3
94
3
80
3
74
3
72
3
62
3
63
3
59
3
52
3
51
3
38
3
30
3
35
3
32
3
26
3
27
3
28
3
23
3
24
3
24
3
20
3
27
3
26
3
24
3
30
3
27
3
21
3
26
3
32
3
30
3
39
3
40
3
40
3
50
3
49
3
45
3
46
3
43
3
40
3
43
3
48
3
50
3
58
3
58
3
64
3
66
3
65
3
64
3
67
3
63
3
62
3
71
3
74
3
73
3
79
3
81
3
82
3
88
3
90
3
94
3
99
3
89
3
86
3
87
3
91
3
94
3
103
3
107
3
114
3
119
3
117
3
119
3
121
3
114
3
109
3
110
3
104
3
105
3
116
3
116
3
115
3
127
3
134
3
130
3
135
3
123
3
118
3
122
3
121
3
125
3
130
3
127
3
126
3
131
3
132
3
137
3
145
3
152
3
148
3
158
3
160
3
162
3
164
3
160
3
162
3
167
3
174
3
195
3
194
3
184
3
181
3
186
3
186
3
190
3
190
3
191
3
190
3
187
3
164
3
153
3
162
3
162
3
157
3
158
3
146
3
134
3
150
3
153
3
149
3
155
3
153
3
138
3
135
3
134
3
138
3
143
3
146
3
143
3
143
3
148
3
160
3
166
3
167
3
166
3
168
3
170
3
171
3
179
3
182
3
189
3
182
3
176
3
176
3
171
3
160
3
152
3
158
3
173
3
187
3
216
3
24
4
107
4
234
4
109
5
212
5
46
6
71
6
97
6
94
6
74
6
240
5
91
5
194
4
40
4
90
3
228
2
201
2
203
2
240
2
39
3
96
3
145
3
170
3
194
3
210
3
223
3
234
3
233
3
228
3
231
3
234
3
237
3
250
3
255
3
6
4
16
4
14
4
11
4
16
4
13
4
19
4
31
4
28
4
20
4
27
4
44
4
46
4
42
4
47
4
48
4
54
4
51
4
46
4
55
4
56
4
58
4
74
4
70
4
69
4
70
4
75
4
78
4
83
4
78
4
74
4
86
4
98
4
99
4
106
4
109
4
102
4
104
4
110
4
110
4
122
4
114
4
117
4
130
4
126
4
130
4
128
4
128
4
130
4
131
4
126
4
119
4
123
4
117
4
116
4
114
4
106
4
96
4
98
4
103
4
99
4
96
4
86
4
76
4
75
4
71
4
60
4
51
4
42
4
36
4
30
4
26
4
13
4
3
4
246
3
239
3
226
3
210
3
200
3
202
3
191
3
179
3
179
3
174
3
172
3
179
3
180
3
172
3
171
3
170
3
172
3
183
3
174
3
168
3
179
3
172
3
165
3
170
3
171
3
172
3
163
3
162
3
159
3
166
3
169
3
170
3
178
3
176
3
183
3
187
3
169
3
172
3
174
3
171
3
175
3
186
3
186
3
188
3
195
3
204
3
198
3
194
3
187
3
187
3
190
3
186
3
178
3
179
3
183
3
190
3
202
3
195
3
198
3
203
3
202
3
190
3
187
3
186
3
189
3
202
3
198
3
196
3
195
3
186
3
183
3
194
3
191
3
194
3
194
3
198
3
189
3
195
3
206
3
201
3
210
3
207
3
206
3
211
3
220
3
214
3
211
3
212
3
216
3
230
3
229
3
230
3
242
3
230
3
240
3
239
3
237
3
235
3
240
3
242
3
244
3
250
3
254
3
2
4
11
4
3
4
250
3
8
4
254
3
252
3
246
3
227
3
214
3
215
3
225
3
226
3
226
3
224
3
229
3
239
3
243
3
237
3
234
3
228
3
227
3
227
3
229
3
236
3
245
3
247
3
246
3
235
3
234
3
246
3
243
3
243
3
255
3
6
4
2
4
5
4
3
4
0
4
0
4
14
4
2
4
12
4
24
4
21
4
30
4
39
4
43
4
74
4
139
4
229
4
98
5
246
5
119
6
235
6
64
7
117
7
152
7
166
7
107
7
188
6
251
5
74
5
65
4
155
3
90
3
82
3
111
3
150
3
182
3
230
3
254
3
20
4
50
4
63
4
66
4
67
4
59
4
55
4
62
4
58
4
58
4
70
4
82
4
92
4
99
4
94
4
95
4
114
4
115
4
107
4
115
4
117
4
114
4
117
4
127
4
128
4
136
4
149
4
153
4
147
4
146
4
161
4
160
4
160
4
170
4
174
4
171
4
174
4
188
4
203
4
203
4
214
4
218
4
216
4
210
4
209
4
218
4
218
4
217
4
223
4
231
4
252
4
249
4
246
4
242
4
240
4
254
4
6
5
3
5
10
5
12
5
11
5
15
5
9
5
0
5
10
5
254
4
0
5
3
5
255
4
240
4
242
4
237
4
231
4
211
4
216
4
206
4
202
4
184
4
180
4
181
4
171
4
163
4
155
4
147
4
124
4
122
4
118
4
106
4
91
4
69
4
67
4
66
4
87
4
82
4
83
4
69
4
46
4
38
4
46
4
39
4
38
4
24
4
22
4
34
4
43
4
37
4
35
4
32
4
33
4
35
4
31
4
42
4
46
4
47
4
47
4
35
4
19
4
38
4
52
4
47
4
44
4
46
4
48
4
29
4
42
4
52
4
53
4
53
4
57
4
46
4
47
4
27
4
33
4
50
4
56
4
50
4
56
4
50
4
48
4
51
4
53
4
54
4
50
4
50
4
54
4
48
4
40
4
29
4
46
4
53
4
34
4
30
4
32
4
34
4
35
4
39
4
36
4
34
4
18
4
24
4
30
4
27
4
18
4
10
4
10
4
9
4
6
4
7
4
6
4
9
4
11
4
12
4
5
4
4
4
5
4
6
4
13
4
5
4
7
4
8
4
15
4
22
4
26
4
19
4
25
4
32
4
33
4
34
4
21
4
23
4
23
4
35
4
36
4
26
4
32
4
26
4
32
4
15
4
248
3
246
3
246
3
238
3
238
3
243
3
248
3
247
3
239
3
232
3
226
3
222
3
227
3
227
3
214
3
215
3
230
3
212
3
203
3
210
3
207
3
204
3
210
3
211
3
207
3
207
3
202
3
192
3
190
3
199
3
196
3
202
3
194
3
193
3
192
3
200
3
203
3
203
3
198
3
201
3
227
3
37
4
124
4
248
4
134
5
2
6
107
6
203
6
31
7
106
7
147
7
121
7
198
6
1
6
95
5
98
4
102
3
9
3
226
2
234
2
10
3
46
3
77
3
102
3
134
3
143
3
154
3
174
3
178
3
167
3
168
3
168
3
176
3
178
3
178
3
174
3
178
3
173
3
166
3
186
3
171
3
164
3
167
3
176
3
178
3
187
3
194
3
197
3
190
3
191
3
192
3
195
3
200
3
203
3
210
3
209
3
211
3
215
3
219
3
223
3
230
3
237
3
237
3
247
3
254
3
9
4
10
4
12
4
10
4
10
4
12
4
18
4
26
4
22
4
28
4
34
4
32
4
35
4
42
4
46
4
38
4
38
4
35
4
42
4
51
4
47
4
56
4
59
4
54
4
42
4
43
4
38
4
32
4
27
4
22
4
18
4
22
4
19
4
17
4
10
4
0
4
244
3
240
3
234
3
228
3
222
3
208
3
192
3
182
3
187
3
183
3
176
3
160
3
150
3
153
3
152
3
142
3
135
3
128
3
116
3
119
3
113
3
110
3
111
3
114
3
116
3
114
3
117
3
113
3
110
3
99
3
100
3
112
3
101
3
102
3
107
3
110
3
108
3
107
3
106
3
109
3
114
3
115
3
118
3
126
3
128
3
128
3
138
3
131
3
126
3
130
3
137
3
141
3
146
3
145
3
141
3
138
3
126
3
116
3
118
3
122
3
117
3
122
3
126
3
122
3
123
3
126
3
130
3
131
3
141
3
138
3
135
3
136
3
131
3
138
3
139
3
133
3
139
3
138
3
135
3
134
3
134
3
132
3
134
3
127
3
130
3
142
3
139
3
132
3
142
3
144
3
148
3
150
3
142
3
140
3
134
3
139
3
132
3
134
3
134
3
133
3
135
3
136
3
140
3
144
3
150
3
154
3
163
3
164
3
168
3
171
3
180
3
186
3
195
3
195
3
193
3
202
3
207
3
207
3
209
3
211
3
217
3
203
3
199
3
203
3
183
3
184
3
177
3
180
3
177
3
177
3
183
3
175
3
183
3
183
3
176
3
170
3
176
3
166
3
158
3
153
3
159
3
142
3
152
3
155
3
146
3
150
3
141
3
143
3
151
3
153
3
132
3
123
3
128
3
122
3
134
3
141
3
157
3
154
3
154
3
158
3
154
3
146
3
144
3
158
3
198
3
26
4
152
4
37
5
163
5
14
6
96
6
181
6
254
6
67
7
109
7
10
7
66
6
140
5
226
4
198
3
48
3
254
2
244
2
16
3
59
3
87
3
117
3
139
3
157
3
164
3
162
3
158
3
170
3
175
3
170
3
158
3
163
3
169
3
173
3
190
3
199
3
200
3
206
3
203
3
202
3
208
3
207
3
215
3
222
3
228
3
230
3
243
3
246
3
242
3
3
4
9
4
4
4
2
4
254
3
2
4
2
4
11
4
14
4
27
4
27
4
24
4
31
4
38
4
50
4
63
4
73
4
71
4
71
4
69
4
72
4
74
4
90
4
96
4
106
4
106
4
103
4
103
4
107
4
108
4
111
4
119
4
124
4
134
4
131
4
124
4
122
4
115
4
112
4
115
4
123
4
120
4
119
4
116
4
108
4
107
4
99
4
100
4
99
4
96
4
81
4
70
4
72
4
59
4
58
4
46
4
44
4
35
4
23
4
11
4
0
4
251
3
243
3
222
3
215
3
209
3
216
3
209
3
199
3
199
3
191
3
184
3
184
3
186
3
184
3
190
3
186
3
177
3
182
3
179
3
183
3
187
3
191
3
188
3
186
3
186
3
186
3
190
3
190
3
189
3
195
3
190
3
187
3
194
3
202
3
200
3
195
3
190
3
186
3
187
3
189
3
187
3
190
3
187
3
183
3
184
3
179
3
178
3
179
3
177
3
178
3
182
3
171
3
169
3
171
3
177
3
175
3
179
3
179
3
180
3
186
3
179
3
182
3
183
3
184
3
177
3
174
3
172
3
173
3
179
3
181
3
188
3
187
3
181
3
180
3
183
3
182
3
182
3
182
3
182
3
185
3
190
3
187
3
184
3
184
3
186
3
184
3
187
3
186
3
185
3
190
3
186
3
188
3
194
3
187
3
187
3
199
3
203
3
204
3
217
3
219
3
226
3
230
3
232
3
233
3
230
3
234
3
228
3
235
3
241
3
240
3
247
3
248
3
238
3
219
3
205
3
192
3
195
3
202
3
192
3
202
3
195
3
186
3
192
3
188
3
181
3
179
3
179
3
174
3
179
3
172
3
177
3
179
3
179
3
175
3
179
3
176
3
176
3
182
3
174
3
172
3
176
3
165
3
162
3
168
3
163
3
160
3
167
3
167
3
173
3
168
3
167
3
163
3
163
3
168
3
183
3
227
3
58
4
180
4
54
5
163
5
1
6
95
6
171
6
238
6
51
7
78
7
198
6
243
5
67
5
108
4
106
3
254
2
230
2
254
2
27
3
66
3
99
3
128
3
137
3
158
3
157
3
153
3
163
3
164
3
162
3
161
3
153
3
148
3
150
3
146
3
146
3
154
3
146
3
151
3
155
3
162
3
159
3
170
3
170
3
177
3
184
3
194
3
198
3
210
3
218
3
222
3
227
3
224
3
216
3
216
3
219
3
218
3
222
3
236
3
241
3
242
3
244
3
246
3
2
4
2
4
10
4
18
4
14
4
11
4
2
4
6
4
14
4
22
4
41
4
46
4
50
4
50
4
46
4
54
4
50
4
48
4
50
4
52
4
67
4
75
4
72
4
73
4
71
4
59
4
58
4
54
4
44
4
49
4
50
4
46
4
35
4
27
4
32
4
37
4
26
4
6
4
251
3
248
3
239
3
232
3
227
3
226
3
214
3
216
3
197
3
197
3
195
3
179
3
171
3
175
3
171
3
168
3
168
3
160
3
149
3
136
3
123
3
116
3
119
3
120
3
130
3
139
3
138
3
132
3
139
3
136
3
129
3
118
3
110
3
100
3
110
3
106
3
110
3
110
3
114
3
115
3
118
3
120
3
112
3
115
3
109
3
118
3
130
3
133
3
138
3
130
3
114
3
102
3
107
3
109
3
118
3
118
3
120
3
112
3
120
3
118
3
122
3
134
3
131
3
114
3
106
3
106
3
127
3
139
3
136
3
127
3
134
3
112
3
94
3
92
3
106
3
108
3
114
3
116
3
128
3
119
3
112
3
95
3
96
3
91
3
90
3
90
3
91
3
95
3
99
3
99
3
93
3
90
3
87
3
91
3
104
3
109
3
107
3
112
3
113
3
105
3
107
3
106
3
100
3
98
3
95
3
107
3
123
3
126
3
129
3
130
3
124
3
126
3
134
3
145
3
153
3
154
3
154
3
150
3
145
3
147
3
146
3
150
3
135
3
113
3
107
3
104
3
111
3
118
3
119
3
119
3
118
3
103
3
80
3
70
3
61
3
62
3
66
3
73
3
59
3
61
3
54
3
57
3
62
3
67
3
65
3
75
3
74
3
67
3
67
3
70
3
71
3
78
3
74
3
62
3
71
3
67
3
77
3
78
3
90
3
95
3
98
3
79
3
74
3
78
3
91
3
136
3
215
3
75
4
202
4
55
5
126
5
174
5
210
5
218
5
225
5
219
5
106
5
190
4
50
4
151
3
206
2
139
2
148
2
172
2
211
2
242
2
8
3
46
3
74
3
102
3
128
3
142
3
147
3
143
3
140
3
135
3
131
3
122
3
121
3
131
3
142
3
148
3
150
3
156
3
157
3
158
3
151
3
146
3
151
3
155
3
169
3
178
3
174
3
164
3
171
3
178
3
180
3
186
3
193
3
198
3
208
3
211
3
219
3
227
3
224
3
228
3
234
3
238
3
244
3
242
3
239
3
248
3
0
4
3
4
9
4
15
4
9
4
16
4
25
4
28
4
27
4
34
4
40
4
40
4
46
4
41
4
39
4
43
4
49
4
41
4
41
4
29
4
26
4
35
4
32
4
29
4
26
4
21
4
14
4
10
4
6
4
254
3
251
3
247
3
240
3
242
3
230
3
214
3
210
3
202
3
193
3
179
3
166
3
162
3
159
3
146
3
142
3
134
3
122
3
117
3
110
3
105
3
103
3
98
3
94
3
88
3
83
3
85
3
86
3
78
3
69
3
71
3
73
3
71
3
66
3
74
3
74
3
76
3
74
3
67
3
70
3
72
3
83
3
94
3
207
3
47
4
109
4
154
4
175
4
206
4
218
4
224
4
222
4
224
4
235
4
235
4
235
4
233
4
229
4
227
4
224
4
223
4
230
4
231
4
235
4
231
4
226
4
210
4
210
4
209
4
205
4
207
4
207
4
212
4
219
4
219
4
223
4
227
4
222
4
210
4
200
4
198
4
204
4
198
4
195
4
203
4
210
4
198
4
188
4
190
4
170
4
143
4
134
4
127
4
117
4
126
4
132
4
144
4
142
4
131
4
123
4
120
4
110
4
102
4
98
4
91
4
95
4
106
4
113
4
118
4
134
4
157
4
159
4
150
4
150
4
126
4
126
4
122
4
121
4
112
4
104
4
101
4
90
4
82
4
86
4
86
4
80
4
74
4
67
4
42
4
35
4
31
4
27
4
27
4
30
4
17
4
12
4
11
4
7
4
0
4
2
4
250
3
246
3
240
3
236
3
240
3
240
3
239
3
236
3
241
3
238
3
230
3
234
3
232
3
232
3
231
3
222
3
222
3
219
3
221
3
220
3
215
3
214
3
206
3
211
3
213
3
208
3
214
3
214
3
209
3
215
3
246
3
55
4
155
4
9
5
121
5
219
5
23
6
36
6
50
6
51
6
28
6
179
5
21
5
125
4
232
3
25
3
185
2
183
2
213
2
8
3
59
3
103
3
136
3
171
3
189
3
201
3
223
3
226
3
218
3
223
3
222
3
218
3
223
3
227
3
229
3
235
3
237
3
234
3
238
3
243
3
246
3
251
3
251
3
253
3
6
4
5
4
2
4
8
4
10
4
11
4
19
4
18
4
22
4
30
4
32
4
31
4
35
4
37
4
36
4
42
4
46
4
45
4
50
4
58
4
64
4
74
4
71
4
63
4
66
4
67
4
71
4
78
4
85
4
88
4
94
4
97
4
101
4
111
4
109
4
108
4
112
4
107
4
105
4
104
4
103
4
101
4
102
4
103
4
94
4
90
4
85
4
82
4
82
4
78
4
74
4
71
4
67
4
57
4
48
4
46
4
35
4
32
4
24
4
16
4
11
4
253
3
243
3
238
3
230
3
219
3
210
3
202
3
189
3
190
3
181
3
176
3
166
3
157
3
159
3
155
3
154
3
142
3
138
3
133
3
126
3
131
3
130
3
126
3
130
3
129
3
127
3
130
3
122
3
119
3
115
3
117
3
124
3
126
3
133
3
134
3
135
3
128
3
130
3
126
3
127
3
125
3
128
3
128
3
126
3
126
3
126
3
127
3
131
3
129
3
136
3
144
3
138
3
144
3
147
3
145
3
147
3
150
3
147
3
142
3
147
3
150
3
147
3
146
3
142
3
141
3
151
3
154
3
155
3
151
3
146
3
148
3
152
3
155
3
152
3
152
3
159
3
148
3
145
3
148
3
148
3
139
3
138
3
135
3
134
3
131
3
138
3
142
3
148
3
154
3
161
3
167
3
167
3
168
3
156
3
161
3
168
3
182
3
191
3
182
3
196
3
200
3
196
3
196
3
210
3
209
3
216
3
226
3
225
3
228
3
229
3
221
3
216
3
224
3
220
3
220
3
221
3
204
3
192
3
194
3
184
3
176
3
183
3
181
3
184
3
194
3
196
3
188
3
193
3
192
3
192
3
195
3
191
3
196
3
199
3
204
3
206
3
211
3
209
3
205
3
210
3
208
3
205
3
211
3
205
3
206
3
215
3
208
3
212
3
211
3
205
3
208
3
215
3
212
3
220
3
224
3
220
3
222
3
242
3
21
4
92
4
187
4
40
5
161
5
7
6
60
6
68
6
82
6
72
6
60
6
227
5
68
5
168
4
10
4
65
3
236
2
238
2
0
3
46
3
99
3
136
3
176
3
211
3
228
3
244
3
7
4
12
4
9
4
15
4
12
4
12
4
17
4
13
4
20
4
23
4
20
4
24
4
30
4
24
4
28
4
34
4
37
4
46
4
43
4
45
4
47
4
55
4
56
4
57
4
66
4
63
4
70
4
74
4
76
4
84
4
93
4
92
4
95
4
102
4
100
4
100
4
103
4
116
4
116
4
127
4
125
4
132
4
139
4
136
4
145
4
154
4
150
4
152
4
162
4
158
4
164
4
163
4
156
4
164
4
175
4
172
4
172
4
175
4
166
4
160
4
158
4
153
4
152
4
151
4
148
4
148
4
147
4
134
4
132
4
130
4
118
4
116
4
117
4
101
4
92
4
91
4
81
4
76
4
69
4
56
4
48
4
43
4
32
4
28
4
21
4
5
4
252
3
247
3
236
3
232
3
231
3
221
3
216
3
213
3
204
3
206
3
203
3
196
3
196
3
195
3
190
3
192
3
203
3
201
3
200
3
202
3
194
3
192
3
191
3
185
3
188
3
194
3
188
3
192
3
198
3
196
3
196
3
198
3
196
3
196
3
203
3
196
3
192
3
194
3
190
3
193
3
199
3
196
3
192
3
199
3
196
3
200
3
203
3
196
3
192
3
197
3
188
3
184
3
187
3
184
3
184
3
192
3
184
3
184
3
189
3
184
3
192
3
195
3
181
3
182
3
183
3
173
3
174
3
179
3
173
3
176
3
181
3
174
3
172
3
179
3
176
3
173
3
175
3
172
3
168
3
174
3
172
3
175
3
181
3
176
3
172
3
175
3
172
3
172
3
171
3
172
3
172
3
178
3
175
3
180
3
183
3
180
3
188
3
197
3
190
3
196
3
203
3
200
3
206
3
214
3
212
3
217
3
219
3
212
3
216
3
221
3
214
3
208
3
199
3
184
3
174
3
173
3
168
3
168
3
167
3
166
3
164
3
165
3
156
3
156
3
160
3
156
3
156
3
158
3
152
3
148
3
155
3
144
3
150
3
149
3
140
3
140
3
143
3
140
3
142
3
151
3
149
3
152
3
157
3
152
3
152
3
159
3
154
3
156
3
155
3
150
3
146
3
151
3
148
3
152
3
166
3
212
3
22
4
119
4
229
4
76
5
160
5
204
5
216
5
222
5
221
5
200
5
96
5
196
4
48
4
161
3
216
2
134
2
147
2
184
2
236
2
32
3
62
3
96
3
123
3
140
3
161
3
175
3
173
3
180
3
183
3
176
3
180
3
189
3
185
3
184
3
195
3
191
3
192
3
195
3
193
3
200
3
210
3
212
3
216
3
222
3
220
3
220
3
230
3
223
3
228
3
239
3
237
3
244
3
250
3
248
3
252
3
3
4
252
3
4
4
15
4
16
4
22
4
32
4
28
4
30
4
38
4
38
4
40
4
47
4
45
4
48
4
58
4
68
4
76
4
85
4
80
4
81
4
91
4
93
4
96
4
103
4
108
4
109
4
110
4
108
4
108
4
111
4
111
4
116
4
118
4
109
4
108
4
110
4
108
4
106
4
107
4
101
4
95
4
96
4
85
4
88
4
90
4
76
4
68
4
61
4
48
4
44
4
39
4
30
4
21
4
19
4
12
4
8
4
7
4
254
3
244
3
238
3
228
3
228
3
235
3
220
3
213
3
219
3
220
3
220
3
225
3
224
3
220
3
222
3
220
3
220
3
230
3
221
3
223
3
231
3
228
3
228
3
230
3
229
3
232
3
231
3
229
3
238
3
247
3
244
3
244
3
251
3
249
3
253
3
1
4
252
3
254
3
253
3
249
3
252
3
13
4
13
4
8
4
10
4
8
4
12
4
15
4
12
4
16
4
19
4
16
4
24
4
27
4
20
4
18
4
22
4
24
4
24
4
23
4
16
4
20
4
25
4
16
4
20
4
27
4
28
4
28
4
29
4
24
4
24
4
27
4
24
4
32
4
37
4
36
4
36
4
38
4
36
4
30
4
32
4
24
4
24
4
32
4
31
4
44
4
53
4
52
4
56
4
59
4
61
4
64
4
67
4
68
4
78
4
87
4
84
4
92
4
99
4
92
4
100
4
107
4
112
4
113
4
113
4
104
4
108
4
109
4
95
4
93
4
99
4
95
4
94
4
98
4
95
4
100
4
101
4
95
4
100
4
102
4
93
4
92
4
99
4
97
4
100
4
102
4
92
4
96
4
103
4
100
4
104
4
110
4
104
4
100
4
101
4
100
4
101
4
103
4
100
4
104
4
107
4
102
4
104
4
107
4
100
4
104
4
110
4
124
4
156
4
231
4
76
5
204
5
79
6
196
6
15
7
35
7
53
7
40
7
247
6
124
6
236
5
99
5
156
4
216
3
135
3
127
3
140
3
179
3
224
3
5
4
43
4
72
4
97
4
122
4
128
4
140
4
147
4
142
4
140
4
151
4
149
4
150
4
161
4
161
4
168
4
177
4
181
4
181
4
186
4
181
4
188
4
191
4
189
4
196
4
203
4
204
4
204
4
203
4
204
4
206
4
213
4
205
4
212
4
225
4
228
4
229
4
231
4
228
4
229
4
239
4
232
4
238
4
242
4
240
4
244
4
251
4
248
4
252
4
255
4
0
5
4
5
15
5
17
5
24
5
23
5
20
5
30
5
39
5
30
5
24
5
32
5
29
5
32
5
35
5
24
5
24
5
27
5
24
5
25
5
23
5
12
5
8
5
1
5
248
4
244
4
243
4
236
4
233
4
234
4
221
4
220
4
211
4
196
4
188
4
187
4
172
4
164
4
155
4
144
4
140
4
131
4
122
4
120
4
114
4
100
4
92
4
91
4
85
4
74
4
75
4
68
4
72
4
71
4
65
4
60
4
59
4
49
4
49
4
52
4
44
4
44
4
51
4
49
4
46
4
54
4
48
4
45
4
51
4
44
4
45
4
50
4
37
4
36
4
47
4
46
4
44
4
47
4
41
4
44
4
51
4
48
4
52
4
50
4
44
4
41
4
39
4
33
4
32
4
38
4
31
4
28
4
30
4
21
4
22
4
19
4
16
4
13
4
15
4
12
4
12
4
14
4
4
4
254
3
1
4
249
3
241
3
243
3
237
3
240
3
242
3
233
3
228
3
229
3
228
3
228
3
225
3
223
3
223
3
224
3
220
3
220
3
219
3
212
3
212
3
219
3
220
3
220
3
219
3
216
3
216
3
225
3
220
3
222
3
231
3
229
3
234
3
237
3
232
3
233
3
238
3
228
3
224
3
227
3
220
3
220
3
224
3
221
3
216
3
209
3
188
3
184
3
185
3
177
3
176
3
175
3
168
3
168
3
173
3
164
3
165
3
167
3
164
3
160
3
165
3
156
3
156
3
155
3
153
3
152
3
155
3
148
3
152
3
158
3
148
3
144
3
149
3
145
3
150
3
158
3
152
3
156
3
156
3
150
3
144
3
147
3
140
3
140
3
142
3
145
3
188
3
11
4
108
4
232
4
106
5
209
5
28
6
59
6
84
6
78
6
59
6
213
5
52
5
160
4
245
3
24
3
167
2
140
2
148
2
192
2
229
2
13
3
51
3
77
3
100
3
123
3
132
3
136
3
143
3
142
3
141
3
143
3
133
3
136
3
143
3
142
3
144
3
150
3
150
3
152
3
157
3
152
3
158
3
164
3
161
3
164
3
167
3
168
3
172
3
181
3
180
3
184
3
193
3
190
3
192
3
209
3
206
3
212
3
215
3
212
3
216
3
229
3
225
3
228
3
235
3
236
3
240
3
247
3
244
3
248
3
253
3
252
3
254
3
7
4
8
4
16
4
23
4
21
4
24
4
32
4
28
4
32
4
39
4
36
4
36
4
35
4
28
4
28
4
27
4
20
4
20
4
19
4
16
4
14
4
17
4
4
4
252
3
253
3
241
3
236
3
234
3
223
3
222
3
218
3
207
3
196
3
193
3
180
3
174
3
171
3
157
3
152
3
143
3
127
3
124
3
126
3
116
3
111
3
111
3
103
3
100
3
99
3
89
3
84
3
83
3
77
3
77
3
83
3
76
3
79
3
82
3
77
3
80
3
81
3
76
3
76
3
79
3
73
3
76
3
79
3
76
3
77
3
82
3
80
3
80
3
83
3
76
3
74
3
83
3
87
3
85
3
89
3
82
3
82
3
94
3
80
3
75
3
87
3
83
3
83
3
87
3
82
3
83
3
81
3
82
3
48
3
77
3
83
3
80
3
78
3
79
3
79
3
75
3
76
3
78
3
66
3
68
3
70
3
70
3
71
3
67
3
67
3
67
3
59
3
57
3
62
3
63
3
64
3
66
3
62
3
59
3
59
3
58
3
58
3
58
3
54
3
58
3
64
3
66
3
66
3
70
3
70
3
71
3
78
3
78
3
82
3
86
3
91
3
99
3
107
3
108
3
108
3
114
3
110
3
108
3
113
3
112
3
113
3
117
3
112
3
100
3
94
3
88
3
84
3
88
3
86
3
82
3
83
3
83
3
82
3
86
3
81
3
82
3
82
3
80
3
79
3
80
3
82
3
79
3
82
3
81
3
81
3
80
3
78
3
79
3
83
3
81
3
82
3
83
3
81
3
80
3
86
3
89
3
86
3
89
3
89
3
87
3
91
3
93
3
93
3
102
3
114
3
168
3
2
4
123
4
246
4
99
5
170
5
221
5
255
5
15
6
41
6
42
6
190
5
0
5
110
4
212
3
254
2
154
2
148
2
170
2
210
2
248
2
24
3
64
3
85
3
104
3
127
3
132
3
136
3
139
3
135
3
135
3
139
3
139
3
140
3
142
3
144
3
146
3
154
3
154
3
151
3
162
3
163
3
166
3
171
3
172
3
175
3
179
3
182
3
185
3
194
3
198
3
199
3
206
3
209
3
210
3
218
3
219
3
220
3
227
3
231
3
235
3
243
3
249
3
253
3
6
4
7
4
13
4
16
4
23
4
25
4
35
4
38
4
40
4
50
4
51
4
55
4
59
4
62
4
67
4
75
4
78
4
76
4
82
4
79
4
77
4
80
4
75
4
73
4
74
4
69
4
60
4
64
4
57
4
54
4
54
4
51
4
44
4
40
4
39
4
33
4
26
4
16
4
6
4
1
4
250
3
241
3
234
3
226
3
211
3
207
3
199
3
190
3
184
3
174
3
164
3
155
3
150
3
143
3
142
3
134
3
126
3
130
3
126
3
123
3
125
3
123
3
119
3
120
3
119
3
116
3
115
3
115
3
116
3
122
3
119
3
117
3
122
3
126
3
124
3
130
3
130
3
130
3
130
3
126
3
122
3
114
3
111
3
108
3
112
3
113
3
113
3
115
3
114
3
114
3
118
3
115
3
116
3
122
3
126
3
128
3
136
3
134
3
138
3
146
3
142
3
140
3
139
3
139
3
142
3
150
3
149
3
148
3
152
3
147
3
148
3
154
3
154
3
153
3
158
3
156
3
155
3
163
3
157
3
148
3
154
3
152
3
156
3
159
3
160
3
158
3
159
3
158
3
156
3
158
3
160
3
160
3
162
3
164
3
166
3
171
3
171
3
172
3
183
3
188
3
192
3
198
3
202
3
202
3
210
3
208
3
208
3
219
3
219
3
218
3
219
3
218
3
214
3
216
3
213
3
202
3
194
3
185
3
186
3
187
3
183
3
182
3
187
3
186
3
182
3
179
3
180
3
176
3
182
3
179
3
176
3
179
3
175
3
176
3
178
3
175
3
174
3
178
3
182
3
184
3
184
3
182
3
182
3
186
3
186
3
188
3
194
3
190
3
189
3
187
3
189
3
190
3
195
3
195
3
200
3
208
3
216
3
4
4
86
4
191
4
61
5
194
5
34
6
88
6
107
6
123
6
125
6
116
6
9
6
96
5
207
4
42
4
78
3
234
2
226
2
246
2
46
3
94
3
128
3
174
3
203
3
220
3
246
3
7
4
11
4
14
4
14
4
18
4
19
4
15
4
12
4
18
4
23
4
28
4
35
4
37
4
29
4
40
4
39
4
43
4
54
4
56
4
57
4
66
4
63
4
65
4
71
4
72
4
74
4
74
4
70
4
75
4
87
4
90
4
95
4
102
4
102
4
100
4
107
4
113
4
118
4
126
4
123
4
124
4
131
4
138
4
138
4
144
4
148
4
150
4
155
4
162
4
172
4
174
4
179
4
190
4
194
4
191
4
193
4
198
4
191
4
196
4
199
4
200
4
202
4
203
4
203
4
200
4
199
4
195
4
192
4
187
4
179
4
171
4
174
4
170
4
164
4
158
4
143
4
129
4
123
4
122
4
121
4
113
4
102
4
90
4
83
4
71
4
63
4
56
4
46
4
39
4
38
4
23
4
14
4
11
4
16
4
10
4
7
4
6
4
0
4
254
3
254
3
255
3
254
3
252
3
253
3
0
4
1
4
5
4
10
4
10
4
2
4
7
4
7
4
10
4
10
4
9
4
10
4
11
4
12
4
12
4
16
4
15
4
12
4
14
4
17
4
20
4
30
4
25
4
19
4
23
4
27
4
31
4
38
4
30
4
23
4
23
4
22
4
21
4
22
4
19
4
12
4
16
4
18
4
12
4
14
4
19
4
22
4
22
4
21
4
21
4
23
4
22
4
18
4
19
4
15
4
14
4
16
4
18
4
19
4
19
4
16
4
12
4
14
4
13
4
11
4
18
4
14
4
16
4
18
4
14
4
13
4
18
4
24
4
25
4
24
4
30
4
32
4
35
4
38
4
38
4
46
4
48
4
50
4
55
4
54
4
56
4
58
4
54
4
51
4
56
4
56
4
52
4
56
4
49
4
34
4
29
4
22
4
20
4
22
4
19
4
16
4
19
4
22
4
15
4
16
4
10
4
6
4
7
4
255
3
248
3
250
3
246
3
243
3
246
3
243
3
238
3
234
3
232
3
230
3
235
3
238
3
234
3
235
3
233
3
230
3
235
3
234
3
234
3
238
3
240
3
235
3
243
3
243
3
239
3
244
3
18
4
84
4
186
4
48
5
176
5
38
6
119
6
152
6
178
6
186
6
170
6
94
6
186
5
26
5
123
4
147
3
7
3
235
2
234
2
14
3
63
3
102
3
139
3
176
3
198
3
213
3
231
3
237
3
239
3
242
3
243
3
242
3
246
3
250
3
253
3
3
4
6
4
10
4
18
4
15
4
12
4
18
4
15
4
18
4
24
4
28
4
30
4
38
4
42
4
39
4
43
4
47
4
49
4
58
4
55
4
55
4
59
4
59
4
58
4
67
4
68
4
74
4
80
4
83
4
86
4
94
4
96
4
101
4
107
4
106
4
112
4
115
4
123
4
123
4
130
4
132
4
133
4
139
4
143
4
145
4
154
4
154
4
158
4
161
4
162
4
158
4
162
4
160
4
156
4
159
4
154
4
145
4
146
4
139
4
133
4
130
4
127
4
120
4
119
4
114
4
104
4
98
4
86
4
78
4
75
4
66
4
56
4
46
4
32
4
26
4
22
4
14
4
4
4
3
4
249
3
244
3
235
3
231
3
226
3
222
3
215
3
210
3
209
3
205
3
203
3
206
3
202
3
199
3
198
3
195
3
194
3
194
3
195
3
196
3
199
3
199
3
198
3
203
3
203
3
200
3
203
3
200
3
199
3
208
3
203
3
199
3
201
3
200
3
196
3
199
3
194
3
195
3
202
3
203
3
202
3
206
3
207
3
206
3
214
3
212
3
213
3
219
3
218
3
213
3
218
3
214
3
218
3
219
3
220
3
218
3
219
3
217
3
214
3
215
3
218
3
217
3
223
3
224
3
223
3
226
3
220
3
218
3
224
3
216
3
215
3
219
3
216
3
215
3
219
3
218
3
217
3
218
3
214
3
212
3
211
3
214
3
208
3
211
3
213
3
213
3
217
3
215
3
212
3
219
3
223
3
226
3
235
3
240
3
244
3
250
3
250
3
252
3
2
4
3
4
6
4
11
4
7
4
0
4
6
4
8
4
5
4
3
4
251
3
243
3
239
3
230
3
226
3
224
3
219
3
213
3
218
3
215
3
218
3
217
3
211
3
208
3
206
3
203
3
200
3
203
3
201
3
196
3
200
3
196
3
194
3
198
3
200
3
196
3
202
3
200
3
198
3
200
3
202
3
201
3
203
3
202
3
200
3
203
3
202
3
200
3
203
3
204
3
202
3
208
3
211
3
230
3
38
4
135
4
2
5
134
5
234
5
42
6
96
6
123
6
140
6
158
6
131
6
233
5
54
5
171
4
241
3
48
3
232
2
235
2
6
3
43
3
84
3
120
3
154
3
178
3
202
3
218
3
222
3
226
3
225
3
221
3
226
3
226
3
227
3
232
3
235
3
240
3
242
3
242
3
243
3
247
3
249
3
250
3
3
4
2
4
6
4
15
4
15
4
14
4
19
4
19
4
19
4
26
4
28
4
30
4
35
4
32
4
31
4
34
4
35
4
36
4
42
4
43
4
50
4
56
4
58
4
62
4
72
4
80
4
84
4
90
4
91
4
93
4
102
4
107
4
106
4
115
4
118
4
122
4
126
4
128
4
130
4
138
4
144
4
138
4
142
4
142
4
138
4
139
4
134
4
134
4
133
4
126
4
122
4
126
4
117
4
115
4
112
4
108
4
98
4
96
4
89
4
80
4
75
4
66
4
56
4
51
4
44
4
34
4
26
4
13
4
254
3
250
3
240
3
230
3
226
3
218
3
212
3
206
3
202
3
197
3
198
3
190
3
186
3
184
3
187
3
187
3
187
3
189
3
186
3
181
3
180
3
189
3
187
3
181
3
190
3
182
3
179
3
196
3
191
3
185
3
199
3
189
3
179
3
185
3
187
3
186
3
190
3
193
3
191
3
186
3
188
3
189
3
186
3
186
3
185
3
190
3
192
3
185
3
184
3
182
3
180
3
180
3
182
3
181
3
180
3
182
3
183
3
184
3
184
3
185
3
190
3
192
3
196
3
194
3
196
3
197
3
198
3
202
3
199
3
200
3
202
3
199
3
204
3
205
3
206
3
202
3
202
3
201
3
202
3
200
3
200
3
202
3
202
3
201
3
200
3
204
3
206
3
208
3
207
3
205
3
204
3
202
3
202
3
204
3
201
3
199
3
202
3
206
3
208
3
210
3
216
3
226
3
230
3
234
3
238
3
244
3
252
3
253
3
0
4
2
4
0
4
254
3
251
3
250
3
250
3
248
3
240
3
236
3
226
3
220
3
212
3
214
3
212
3
212
3
207
3
210
3
206
3
204
3
198
3
198
3
198
3
196
3
190
3
190
3
188
3
188
3
192
3
193
3
190
3
190
3
189
3
188
3
188
3
189
3
188
3
188
3
183
3
180
3
178
3
175
3
172
3
175
3
174
3
176
3
180
3
180
3
178
3
182
3
187
3
208
3
8
4
101
4
224
4
93
5
188
5
248
5
41
6
74
6
88
6
111
6
106
6
232
5
47
5
165
4
8
4
58
3
233
2
236
2
8
3
47
3
88
3
120
3
150
3
172
3
192
3
206
3
212
3
218
3
219
3
220
3
218
3
218
3
217
3
220
3
220
3
222
3
226
3
229
3
230
3
234
3
237
3
240
3
240
3
246
3
250
3
251
3
253
3
2
4
8
4
12
4
14
4
15
4
19
4
20
4
26
4
29
4
36
4
40
4
39
4
44
4
47
4
52
4
58
4
64
4
70
4
70
4
74
4
80
4
84
4
90
4
97
4
100
4
102
4
103
4
108
4
113
4
118
4
122
4
121
4
127
4
129
4
136
4
132
4
136
4
136
4
135
4
134
4
131
4
128
4
124
4
122
4
121
4
120
4
120
4
114
4
112
4
107
4
100
4
96
4
88
4
81
4
74
4
72
4
60
4
52
4
45
4
36
4
26
4
18
4
11
4
255
3
242
3
234
3
226
3
222
3
216
3
208
3
206
3
203
3
196
3
196
3
192
3
188
3
188
3
187
3
188
3
186
3
183
3
184
3
186
3
188
3
190
3
194
3
195
3
193
3
196
3
192
3
190
3
190
3
190
3
188
3
189
3
187
3
190
3
188
3
188
3
186
3
186
3
183
3
186
3
186
3
188
3
188
3
188
3
190
3
188
3
190
3
190
3
194
3
194
3
196
3
196
3
196
3
193
3
192
3
194
3
197
3
194
3
196
3
199
3
198
3
194
3
197
3
198
3
198
3
199
3
198
3
200
3
199
3
198
3
200
3
201
3
198
3
198
3
194
3
196
3
196
3
196
3
192
3
194
3
197
3
194
3
196
3
194
3
192
3
192
3
192
3
190
3
190
3
188
3
188
3
188
3
188
3
188
3
187
3
190
3
186
3
188
3
192
3
194
3
196
3
199
3
200
3
206
3
214
3
222
3
229
3
234
3
238
3
244
3
247
3
248
3
252
3
253
3
250
3
252
3
250
3
248
3
244
3
239
3
228
3
217
3
212
3
200
3
202
3
200
3
198
3
202
3
199
3
196
3
196
3
192
3
190
3
190
3
186
3
182
3
180
3
180
3
183
3
182
3
182
3
178
3
181
3
178
3
174
3
176
3
176
3
174
3
174
3
175
3
176
3
174
3
176
3
172
3
175
3
176
3
178
3
178
3
177
3
180
3
182
3
190
3
204
3
250
3
74
4
188
4
56
5
159
5
226
5
15
6
40
6
52
6
72
6
65
6
208
5
34
5
145
4
254
3
51
3
221
2
224
2
255
2
39
3
80
3
111
3
142
3
164
3
185
3
199
3
206
3
212
3
210
3
212
3
216
3
217
3
222
3
226
3
231
3
232
3
235
3
229
3
232
3
236
3
239
3
240
3
242
3
245
3
248
3
253
3
255
3
4
4
10
4
9
4
10
4
14
4
19
4
24
4
30
4
32
4
32
4
42
4
46
4
50
4
54
4
55
4
56
4
60
4
64
4
74
4
76
4
80
4
83
4
90
4
95
4
104
4
108
4
111
4
112
4
114
4
119
4
118
4
116
4
120
4
124
4
130
4
133
4
130
4
137
4
137
4
138
4
139
4
133
4
130
4
130
4
129
4
124
4
126
4
124
4
120
4
116
4
113
4
112
4
106
4
101
4
96
4
86
4
74
4
66
4
62
4
55
4
46
4
32
4
21
4
17
4
8
4
253
3
244
3
241
3
235
3
228
3
222
3
226
3
224
3
220
3
210
3
208
3
206
3
207
3
202
3
204
3
201
3
200
3
202
3
204
3
204
3
204
3
202
3
204
3
204
3
202
3
204
3
210
3
207
3
206
3
207
3
204
3
204
3
206
3
203
3
204
3
206
3
203
3
202
3
200
3
204
3
206
3
210
3
205
3
202
3
204
3
209
3
208
3
210
3
209
3
208
3
203
3
203
3
202
3
205
3
206
3
206
3
210
3
211
3
210
3
210
3
209
3
205
3
209
3
210
3
206
3
206
3
204
3
202
3
204
3
204
3
200
3
202
3
202
3
200
3
204
3
205
3
202
3
200
3
200
3
198
3
200
3
197
3
192
3
189
3
192
3
192
3
193
3
192
3
194
3
200
3
197
3
192
3
186
3
181
3
182
3
185
3
185
3
186
3
192
3
186
3
186
3
198
3
204
3
204
3
207
3
215
3
220
3
228
3
228
3
230
3
232
3
230
3
224
3
224
3
225
3
222
3
221
3
218
3
212
3
202
3
189
3
184
3
184
3
180
3
174
3
175
3
174
3
178
3
178
3
173
3
168
3
164
3
167
3
162
3
158
3
158
3
158
3
157
3
156
3
160
3
156
3
154
3
156
3
157
3
157
3
156
3
160
3
158
3
158
3
160
3
156
3
160
3
159
3
157
3
152
3
152
3
151
3
148
3
148
3
145
3
150
3
170
3
217
3
44
4
150
4
16
5
140
5
244
5
39
6
42
6
50
6
37
6
246
5
104
5
206
4
64
4
120
3
205
2
148
2
146
2
170
2
218
2
8
3
50
3
84
3
110
3
133
3
158
3
163
3
162
3
164
3
168
3
173
3
174
3
172
3
167
3
174
3
184
3
187
3
190
3
190
3
188
3
190
3
194
3
199
3
202
3
201
3
199
3
200
3
202
3
202
3
204
3
211
3
224
3
224
3
216
3
221
3
229
3
232
3
232
3
226
3
229
3
234
3
240
3
238
3
240
3
254
3
2
4
4
4
6
4
8
4
12
4
16
4
22
4
26
4
30
4
36
4
37
4
38
4
44
4
43
4
48
4
52
4
52
4
48
4
48
4
47
4
48
4
50
4
49
4
48
4
50
4
47
4
42
4
40
4
32
4
29
4
22
4
20
4
14
4
8
4
4
4
254
3
248
3
240
3
232
3
228
3
215
3
204
3
195
3
187
3
176
3
164
3
154
3
148
3
145
3
140
3
128
3
120
3
112
3
110
3
104
3
101
3
100
3
94
3
94
3
92
3
89
3
83
3
80
3
83
3
81
3
78
3
76
3
70
3
72
3
78
3
81
3
84
3
85
3
86
3
86
3
86
3
87
3
88
3
88
3
91
3
92
3
91
3
85
3
88
3
94
3
98
3
96
3
102
3
101
3
102
3
98
3
99
3
98
3
98
3
96
3
98
3
99
3
95
3
100
3
104
3
107
3
104
3
101
3
97
3
94
3
94
3
91
3
92
3
94
3
89
3
88
3
86
3
86
3
86
3
88
3
87
3
88
3
91
3
91
3
88
3
90
3
89
3
88
3
88
3
89
3
86
3
84
3
85
3
84
3
84
3
85
3
84
3
86
3
89
3
84
3
82
3
80
3
78
3
79
3
80
3
80
3
82
3
84
3
82
3
84
3
88
3
88
3
92
3
98
3
100
3
106
3
109
3
112
3
118
3
120
3
121
3
125
3
131
3
124
3
123
3
124
3
128
3
128
3
126
3
124
3
113
3
102
3
100
3
97
3
96
3
96
3
94
3
93
3
96
3
96
3
87
3
86
3
88
3
87
3
80
3
76
3
75
3
76
3
78
3
80
3
78
3
78
3
80
3
78
3
78
3
78
3
78
3
76
3
80
3
79
3
79
3
81
3
80
3
82
3
87
3
90
3
90
3
94
3
88
3
90
3
91
3
96
3
118
3
177
3
10
4
128
4
2
5
118
5
207
5
254
5
10
6
29
6
22
6
234
5
86
5
178
4
32
4
85
3
164
2
110
2
108
2
142
2
190
2
230
2
12
3
42
3
72
3
87
3
110
3
122
3
126
3
124
3
127
3
127
3
124
3
124
3
127
3
132
3
136
3
139
3
144
3
152
3
154
3
158
3
162
3
167
3
170
3
174
3
178
3
180
3
180
3
182
3
190
3
195
3
199
3
204
3
207
3
211
3
216
3
221
3
238
3
235
3
247
3
245
3
249
3
0
4
3
4
9
4
23
4
19
4
9
4
27
4
31
4
32
4
38
4
51
4
54
4
55
4
67
4
68
4
70
4
77
4
79
4
81
4
79
4
88
4
83
4
84
4
90
4
88
4
86
4
91
4
84
4
84
4
81
4
68
4
68
4
66
4
56
4
56
4
55
4
48
4
44
4
42
4
36
4
29
4
27
4
16
4
8
4
10
4
252
3
240
3
239
3
228
3
220
3
215
3
206
3
201
3
203
3
191
3
185
3
186
3
180
3
177
3
179
3
172
3
168
3
171
3
168
3
165
3
166
3
164
3
165
3
167
3
164
3
164
3
167
3
160
3
164
3
167
3
166
3
164
3
167
3
166
3
168
3
174
3
172
3
176
3
182
3
175
3
177
3
183
3
177
3
174
3
181
3
177
3
180
3
183
3
180
3
180
3
185
3
185
3
184
3
193
3
188
3
192
3
195
3
193
3
192
3
195
3
184
3
188
3
193
3
189
3
188
3
192
3
184
3
180
3
187
3
181
3
180
3
183
3
177
3
176
3
179
3
173
3
172
3
175
3
169
3
174
3
179
3
177
3
175
3
178
3
173
3
172
3
174
3
168
3
168
3
173
3
172
3
172
3
178
3
174
3
173
3
177
3
172
3
173
3
178
3
172
3
172
3
175
3
173
3
176
3
178
3
176
3
180
3
189
3
185
3
196
3
205
3
205
3
216
3
220
3
220
3
220
3
227
3
228
3
232
3
239
3
236
3
236
3
239
3
237
3
232
3
230
3
212
3
204
3
205
3
196
3
196
3
199
3
196
3
196
3
199
3
193
3
196
3
194
3
188
3
188
3
190
3
180
3
177
3
179
3
173
3
177
3
182
3
177
3
180
3
179
3
175
3
174
3
182
3
175
3
176
3
179
3
176
3
175
3
183
3
180
3
180
3
181
3
180
3
182
3
187
3
181
3
188
3
198
3
216
3
24
4
130
4
252
4
116
5
218
5
16
6
64
6
85
6
100
6
116
6
87
6
181
5
8
5
134
4
196
3
24
3
226
2
236
2
12
3
64
3
94
3
128
3
161
3
176
3
200
3
215
3
216
3
220
3
223
3
220
3
220
3
224
3
221
3
224
3
231
3
225
3
228
3
234
3
232
3
236
3
243
3
237
3
238
3
247
3
248
3
246
3
255
3
253
3
1
4
10
4
8
4
14
4
21
4
17
4
20
4
27
4
28
4
28
4
34
4
40
4
44
4
51
4
52
4
60
4
66
4
68
4
68
4
78
4
77
4
80
4
86
4
84
4
90
4
99
4
104
4
108
4
114
4
112
4
112
4
119
4
117
4
120
4
122
4
120
4
121
4
127
4
120
4
116
4
117
4
113
4
108
4
111
4
104
4
102
4
103
4
92
4
88
4
87
4
78
4
76
4
71
4
62
4
56
4
55
4
40
4
25
4
22
4
4
4
252
3
242
3
233
3
228
3
219
3
208
3
200
3
199
3
188
3
184
3
179
3
169
3
166
3
167
3
158
3
156
3
162
3
156
3
154
3
161
3
157
3
156
3
160
3
153
3
156
3
163
3
159
3
161
3
166
3
164
3
164
3
169
3
164
3
164
3
171
3
167
3
165
3
167
3
166
3
168
3
171
3
165
3
164
3
165
3
161
3
161
3
167
3
165
3
162
3
167
3
161
3
158
3
167
3
161
3
157
3
166
3
164
3
164
3
170
3
165
3
161
3
167
3
164
3
164
3
164
3
159
3
158
3
165
3
160
3
164
3
167
3
164
3
164
3
167
3
164
3
164
3
167
3
164
3
165
3
167
3
164
3
164
3
167
3
164
3
161
3
167
3
165
3
172
3
172
3
172
3
168
3
171
3
164
3
166
3
166
3
164
3
164
3
171
3
172
3
172
3
171
3
169
3
168
3
171
3
166
3
166
3
170
3
165
3
169
3
179
3
181
3
188
3
199
3
202
3
204
3
218
3
214
3
220
3
231
3
229
3
232
3
233
3
228
3
225
3
227
3
217
3
212
3
202
3
188
3
186
3
183
3
177
3
172
3
171
3
166
3
166
3
174
3
168
3
169
3
174
3
168
3
166
3
165
3
159
3
156
3
161
3
158
3
156
3
160
3
152
3
152
3
154
3
144
3
145
3
151
3
148
3
150
3
151
3
148
3
148
3
149
3
148
3
148
3
151
3
148
3
150
3
159
3
159
3
164
3
186
3
241
3
78
4
203
4
65
5
164
5
226
5
6
6
28
6
43
6
52
6
36
6
151
5
229
4
96
4
186
3
253
2
192
2
207
2
236
2
26
3
71
3
100
3
125
3
148
3
165
3
180
3
193
3
196
3
194
3
197
3
193
3
196
3
198
3
196
3
200
3
207
3
208
3
207
3
213
3
212
3
212
3
218
3
214
3
220
3
227
3
225
3
228
3
237
3
236
3
240
3
250
3
252
3
254
3
6
4
8
4
8
4
15
4
12
4
17
4
26
4
20
4
24
4
34
4
36
4
40
4
50
4
54
4
56
4
70
4
72
4
73
4
83
4
84
4
84
4
91
4
89
4
96
4
99
4
100
4
104
4
109
4
104
4
105
4
114
4
109
4
110
4
119
4
113
4
116
4
117
4
112
4
108
4
107
4
96
4
92
4
94
4
84
4
83
4
82
4
73
4
68
4
66
4
56
4
46
4
39
4
30
4
20
4
19
4
5
4
252
3
247
3
233
3
222
3
221
3
212
3
201
3
203
3
191
3
192
3
190
3
180
3
176
3
179
3
176
3
172
3
175
3
172
3
169
3
174
3
172
3
169
3
169
3
172
3
180
3
183
3
180
3
174
3
177
3
173
3
174
3
182
3
176
3
174
3
182
3
177
3
177
3
183
3
178
3
184
3
187
3
184
3
184
3
187
3
184
3
181
3
187
3
184
3
184
3
187
3
182
3
180
3
183
3
180
3
180
3
183
3
180
3
182
3
183
3
180
3
180
3
187
3
184
3
188
3
192
3
188
3
185
3
190
3
188
3
192
3
197
3
191
3
192
3
195
3
191
3
192
3
198
3
190
3
192
3
194
3
189
3
192
3
197
3
192
3
196
3
199
3
191
3
192
3
193
3
190
3
192
3
195
3
191
3
192
3
192
3
191
3
194
3
197
3
190
3
192
3
195
3
196
3
192
3
197
3
196
3
196
3
195
3
189
3
196
3
203
3
200
3
204
3
215
3
217
3
228
3
231
3
233
3
237
3
247
3
248
3
248
3
254
3
246
3
248
3
251
3
241
3
228
3
226
3
209
3
206
3
205
3
200
3
200
3
203
3
198
3
202
3
208
3
200
3
196
3
202
3
190
3
188
3
190
3
188
3
185
3
189
3
181
3
180
3
183
3
180
3
180
3
181
3
176
3
174
3
177
3
172
3
176
3
182
3
177
3
174
3
178
3
176
3
176
3
182
3
180
3
180
3
179
3
177
3
184
3
198
3
240
3
61
4
174
4
31
5
136
5
207
5
244
5
8
6
21
6
28
6
20
6
170
5
244
4
100
4
214
3
16
3
192
2
199
2
233
2
20
3
69
3
94
3
132
3
159
3
176
3
196
3
203
3
204
3
200
3
209
3
205
3
208
3
214
3
209
3
212
3
217
3
208
3
212
3
224
3
222
3
222
3
229
3
229
3
232
3
239
3
244
3
248
3
1
4
1
4
4
4
10
4
12
4
12
4
21
4
16
4
20
4
27
4
29
4
30
4
38
4
36
4
41
4
47
4
48
4
52
4
61
4
60
4
64
4
71
4
69
4
76
4
85
4
84
4
85
4
96
4
93
4
100
4
110
4
101
4
104
4
114
4
112
4
114
4
117
4
112
4
114
4
118
4
112
4
108
4
111
4
105
4
104
4
102
4
93
4
92
4
94
4
84
4
80
4
75
4
64
4
64
4
59
4
46
4
40
4
36
4
28
4
16
4
13
4
252
3
240
3
238
3
223
3
216
3
207
3
197
3
192
3
193
3
183
3
176
3
173
3
165
3
160
3
162
3
153
3
152
3
151
3
148
3
144
3
150
3
148
3
143
3
146
3
144
3
148
3
151
3
144
3
148
3
149
3
145
3
148
3
149
3
144
3
148
3
151
3
148
3
148
3
155
3
153
3
153
3
154
3
148
3
152
3
154
3
152
3
152
3
151
3
149
3
148
3
154
3
148
3
148
3
151
3
148
3
149
3
153
3
148
3
148
3
151
3
148
3
148
3
151
3
144
3
144
3
147
3
142
3
140
3
145
3
143
3
142
3
146
3
141
3
144
3
143
3
141
3
141
3
143
3
133
3
136
3
141
3
136
3
136
3
142
3
133
3
134
3
138
3
133
3
136
3
135
3
129
3
128
3
134
3
127
3
128
3
130
3
124
3
124
3
131
3
125
3
126
3
127
3
124
3
124
3
126
3
121
3
120
3
126
3
124
3
128
3
138
3
140
3
140
3
157
3
158
3
165
3
171
3
168
3
169
3
175
3
172
3
174
3
181
3
173
3
174
3
182
3
174
3
164
3
157
3
141
3
136
3
135
3
129
3
128
3
127
3
124
3
124
3
130
3
124
3
114
3
123
3
121
3
121
3
111
3
113
3
102
3
109
3
110
3
106
3
103
3
111
3
105
3
74
3
101
3
103
3
93
3
95
3
101
3
99
3
95
3
106
3
108
3
103
3
102
3
111
3
105
3
105
3
108
3
103
3
101
3
111
3
141
3
206
3
49
4
164
4
24
5
115
5
153
5
168
5
178
5
172
5
160
5
79
5
172
4
20
4
143
3
198
2
92
2
92
2
117
2
172
2
229
2
9
3
44
3
76
3
95
3
116
3
129
3
124
3
132
3
131
3
129
3
134
3
142
3
140
3
143
3
150
3
148
3
148
3
154
3
152
3
152
3
157
3
157
3
164
3
169
3
169
3
173
3
179
3
177
3
184
3
190
3
191
3
196
3
202
3
200
3
200
3
207
3
209
3
214
3
221
3
220
3
224
3
235
3
232
3
236
3
242
3
240
3
245
3
2
4
4
4
12
4
14
4
14
4
17
4
26
4
21
4
24
4
34
4
32
4
36
4
42
4
36
4
36
4
42
4
40
4
44
4
46
4
41
4
40
4
43
4
40
4
40
4
39
4
31
4
30
4
35
4
28
4
24
4
19
4
12
4
4
4
3
4
249
3
248
3
243
3
237
3
230
3
226
3
212
3
204
3
198
3
184
3
174
3
171
3
160
3
152
3
150
3
144
3
142
3
135
3
126
3
124
3
123
3
120
3
116
3
119
3
119
3
116
3
119
3
112
3
112
3
111
3
112
3
116
3
122
3
117
3
117
3
123
3
120
3
121
3
127
3
124
3
121
3
127
3
125
3
124
3
125
3
120
3
124
3
126
3
125
3
125
3
133
3
129
3
132
3
137
3
133
3
133
3
135
3
133
3
132
3
134
3
127
3
132
3
138
3
132
3
132
3
135
3
129
3
128
3
131
3
127
3
129
3
131
3
126
3
128
3
134
3
132
3
132
3
135
3
129
3
128
3
135
3
129
3
129
3
131
3
130
3
132
3
138
3
132
3
128
3
130
3
124
3
124
3
129
3
125
3
124
3
127
3
124
3
128
3
130
3
124
3
124
3
129
3
124
3
128
3
130
3
129
3
128
3
129
3
125
3
128
3
135
3
134
3
136
3
143
3
144
3
152
3
162
3
161
3
164
3
171
3
177
3
184
3
190
3
188
3
184
3
187
3
180
3
185
3
190
3
176
3
166
3
165
3
157
3
156
3
158
3
152
3
148
3
151
3
148
3
148
3
154
3
145
3
142
3
146
3
137
3
137
3
139
3
133
3
136
3
141
3
137
3
140
3
142
3
137
3
140
3
146
3
144
3
148
3
151
3
145
3
145
3
149
3
144
3
146
3
147
3
148
3
148
3
149
3
145
3
148
3
155
3
157
3
164
3
199
3
1
4
94
4
207
4
68
5
176
5
0
6
13
6
24
6
19
6
248
5
168
5
15
5
120
4
236
3
43
3
181
2
164
2
181
2
221
2
17
3
65
3
97
3
132
3
157
3
172
3
196
3
210
3
208
3
208
3
211
3
208
3
208
3
217
3
216
3
212
3
218
3
217
3
225
3
233
3
232
3
232
3
239
3
240
3
244
3
253
3
249
3
254
3
6
4
4
4
4
4
7
4
8
4
14
4
19
4
20
4
21
4
32
4
32
4
33
4
45
4
48
4
52
4
63
4
61
4
68
4
74
4
76
4
80
4
90
4
88
4
92
4
103
4
106
4
108
4
119
4
116
4
120
4
125
4
124
4
128
4
133
4
126
4
128
4
135
4
129
4
136
4
139
4
132
4
128
4
129
4
124
4
117
4
119
4
116
4
111
4
115
4
104
4
101
4
99
4
89
4
84
4
82
4
72
4
69
4
66
4
53
4
46
4
43
4
33
4
24
4
19
4
8
4
4
4
253
3
244
3
236
3
234
3
223
3
216
3
219
3
216
3
216
3
221
3
212
3
214
3
218
3
212
3
212
3
211
3
208
3
212
3
211
3
208
3
208
3
214
3
208
3
212
3
217
3
213
3
217
3
229
3
222
3
223
3
230
3
229
3
232
3
239
3
236
3
236
3
239
3
233
3
232
3
239
3
236
3
236
3
239
3
237
3
244
3
247
3
244
3
244
3
247
3
240
3
240
3
245
3
239
3
239
3
245
3
240
3
238
3
243
3
240
3
238
3
242
3
236
3
237
3
243
3
238
3
236
3
235
3
232
3
236
3
238
3
236
3
236
3
239
3
236
3
236
3
237
3
232
3
232
3
238
3
234
3
236
3
239
3
233
3
236
3
242
3
236
3
233
3
239
3
236
3
238
3
241
3
236
3
238
3
243
3
237
3
238
3
245
3
244
3
244
3
245
3
244
3
246
3
251
3
252
3
254
3
11
4
20
4
24
4
32
4
29
4
32
4
39
4
37
4
44
4
50
4
45
4
45
4
55
4
49
4
44
4
37
4
22
4
14
4
19
4
12
4
12
4
17
4
8
4
8
4
11
4
6
4
4
4
7
4
0
4
253
3
1
4
249
3
246
3
247
3
246
3
248
3
251
3
245
3
248
3
247
3
245
3
248
3
246
3
244
3
241
3
243
3
244
3
240
3
249
3
245
3
248
3
250
3
246
3
252
3
0
4
248
3
248
3
0
4
20
4
84
4
178
4
33
5
156
5
0
6
49
6
85
6
99
6
104
6
108
6
79
6
180
5
12
5
143
4
220
3
52
3
6
3
17
3
56
3
107
3
140
3
174
3
213
3
226
3
252
3
14
4
17
4
20
4
21
4
20
4
17
4
23
4
20
4
25
4
33
4
32
4
36
4
39
4
37
4
44
4
46
4
46
4
48
4
58
4
56
4
56
4
60
4
60
4
68
4
71
4
73
4
76
4
85
4
84
4
89
4
97
4
100
4
101
4
110
4
111
4
116
4
123
4
124
4
125
4
133
4
132
4
136
4
147
4
148
4
153
4
159
4
160
4
164
4
174
4
174
4
180
4
185
4
181
4
184
4
190
4
190
4
188
4
196
4
193
4
196
4
199
4
196
4
188
4
187
4
181
4
181
4
183
4
172
4
172
4
171
4
165
4
160
4
160
4
149
4
148
4
145
4
134
4
129
4
126
4
119
4
110
4
107
4
95
4
88
4
83
4
76
4
68
4
67
4
52
4
44
4
42
4
32
4
28
4
27
4
13
4
8
4
6
4
0
4
255
3
5
4
252
3
248
3
253
3
252
3
249
3
251
3
249
3
252
3
1
4
253
3
250
3
254
3
253
3
254
3
3
4
0
4
5
4
9
4
5
4
8
4
7
4
4
4
6
4
11
4
8
4
8
4
9
4
4
4
4
4
7
4
4
4
8
4
13
4
9
4
9
4
11
4
9
4
8
4
10
4
5
4
8
4
10
4
5
4
5
4
11
4
9
4
8
4
11
4
5
4
8
4
6
4
5
4
4
4
5
4
1
4
4
4
3
4
4
4
4
4
7
4
4
4
2
4
7
4
254
3
4
4
5
4
1
4
5
4
7
4
4
4
4
4
10
4
8
4
8
4
11
4
4
4
8
4
10
4
1
4
8
4
11
4
8
4
5
4
7
4
1
4
4
4
3
4
255
3
4
4
13
4
12
4
20
4
32
4
33
4
41
4
47
4
44
4
49
4
58
4
57
4
60
4
66
4
56
4
56
4
59
4
52
4
46
4
35
4
20
4
16
4
18
4
13
4
10
4
11
4
5
4
8
4
10
4
8
4
4
4
1
4
252
3
252
3
251
3
244
3
240
3
243
3
240
3
240
3
242
3
232
3
238
3
239
3
236
3
237
3
239
3
236
3
232
3
234
3
229
3
232
3
234
3
228
3
228
3
233
3
228
3
228
3
231
3
228
3
230
3
243
3
12
4
76
4
179
4
36
5
148
5
241
5
28
6
56
6
71
6
76
6
76
6
33
6
124
5
216
4
93
4
156
3
20
3
253
2
16
3
57
3
107
3
141
3
177
3
207
3
225
3
244
3
10
4
6
4
5
4
9
4
1
4
4
4
6
4
4
4
5
4
7
4
12
4
12
4
23
4
20
4
20
4
27
4
28
4
32
4
38
4
40
4
40
4
47
4
45
4
48
4
55
4
53
4
56
4
64
4
62
4
68
4
73
4
72
4
76
4
83
4
85
4
88
4
99
4
100
4
100
4
103
4
104
4
108
4
111
4
116
4
120
4
126
4
125
4
129
4
133
4
132
4
136
4
143
4
140
4
148
4
154
4
156
4
156
4
165
4
164
4
160
4
164
4
153
4
148
4
154
4
145
4
142
4
147
4
140
4
136
4
135
4
128
4
128
4
123
4
113
4
110
4
111
4
95
4
88
4
87
4
77
4
65
4
64
4
52
4
44
4
39
4
24
4
18
4
14
4
4
4
253
3
247
3
241
3
236
3
228
3
217
3
212
3
215
3
208
3
208
3
211
3
205
3
204
3
205
3
201
3
200
3
203
3
200
3
197
3
206
3
198
3
200
3
207
3
205
3
204
3
209
3
208
3
212
3
215
3
209
3
212
3
213
3
212
3
216
3
217
3
213
3
213
3
218
3
212
3
212
3
213
3
209
3
206
3
211
3
209
3
212
3
218
3
216
3
216
3
219
3
224
3
228
3
221
3
223
3
228
3
222
3
226
3
229
3
226
3
226
3
223
3
217
3
223
3
223
3
220
3
215
3
221
3
222
3
211
3
215
3
214
3
220
3
214
3
224
3
217
3
211
3
223
3
212
3
212
3
218
3
212
3
206
3
207
3
204
3
201
3
199
3
197
3
204
3
210
3
204
3
204
3
207
3
204
3
204
3
207
3
204
3
204
3
203
3
204
3
208
3
214
3
212
3
220
3
231
3
233
3
244
3
247
3
252
3
252
3
3
4
4
4
8
4
13
4
8
4
4
4
7
4
254
3
252
3
246
3
229
3
222
3
222
3
213
3
212
3
213
3
206
3
204
3
207
3
201
3
201
3
205
3
196
3
194
3
194
3
181
3
180
3
183
3
181
3
185
3
187
3
182
3
184
3
187
3
182
3
181
3
183
3
180
3
177
3
181
3
180
3
177
3
182
3
181
3
182
3
183
3
180
3
180
3
186
3
180
3
180
3
190
3
206
3
12
4
103
4
214
4
74
5
169
5
220
5
246
5
5
6
5
6
4
6
231
5
80
5
172
4
46
4
125
3
224
2
188
2
208
2
252
2
49
3
85
3
120
3
155
3
174
3
196
3
214
3
213
3
218
3
224
3
220
3
220
3
226
3
216
3
218
3
225
3
225
3
228
3
235
3
236
3
240
3
245
3
244
3
249
3
1
4
254
3
254
3
3
4
4
4
6
4
11
4
12
4
12
4
20
4
20
4
28
4
34
4
31
4
36
4
39
4
38
4
44
4
53
4
56
4
64
4
71
4
69
4
69
4
75
4
76
4
78
4
85
4
84
4
84
4
94
4
93
4
96
4
103
4
108
4
112
4
115
4
113
4
116
4
119
4
118
4
120
4
123
4
116
4
116
4
119
4
113
4
108
4
106
4
104
4
101
4
98
4
88
4
84
4
83
4
76
4
72
4
71
4
61
4
56
4
54
4
40
4
31
4
23
4
16
4
8
4
255
3
244
3
232
3
227
3
216
3
205
3
202
3
189
3
181
3
182
3
169
3
168
3
171
3
161
3
156
3
160
3
152
3
150
3
154
3
153
3
153
3
154
3
152
3
156
3
157
3
154
3
149
3
156
3
149
3
152
3
155
3
153
3
156
3
159
3
153
3
159
3
163
3
157
3
158
3
161
3
153
3
153
3
158
3
153
3
156
3
162
3
157
3
164
3
165
3
161
3
164
3
167
3
157
3
156
3
160
3
156
3
156
3
154
3
148
3
153
3
155
3
150
3
152
3
154
3
150
3
152
3
155
3
152
3
154
3
157
3
150
3
152
3
154
3
149
3
148
3
151
3
145
3
144
3
150
3
148
3
148
3
151
3
145
3
144
3
147
3
148
3
148
3
154
3
152
3
148
3
155
3
148
3
149
3
151
3
144
3
148
3
149
3
142
3
143
3
147
3
142
3
142
3
149
3
149
3
158
3
167
3
164
3
168
3
175
3
176
3
180
3
183
3
185
3
188
3
190
3
177
3
172
3
177
3
176
3
173
3
171
3
149
3
141
3
141
3
133
3
132
3
135
3
128
3
128
3
134
3
132
3
128
3
127
3
120
3
120
3
119
3
112
3
108
3
107
3
104
3
112
3
117
3
110
3
116
3
119
3
117
3
116
3
118
3
116
3
113
3
119
3
116
3
116
3
118
3
113
3
116
3
115
3
109
3
109
3
111
3
108
3
110
3
117
3
132
3
184
3
11
4
104
4
228
4
87
5
177
5
216
5
215
5
208
5
175
5
115
5
221
4
77
4
203
3
12
3
125
2
96
2
97
2
132
2
186
2
228
2
12
3
55
3
81
3
104
3
126
3
134
3
142
3
146
3
141
3
142
3
147
3
145
3
148
3
154
3
152
3
153
3
161
3
159
3
164
3
165
3
164
3
168
3
175
3
180
3
180
3
183
3
180
3
180
3
187
3
184
3
188
3
198
3
197
3
200
3
207
3
204
3
207
3
211
3
213
3
220
3
228
3
228
3
232
3
238
3
236
3
244
3
251
3
248
3
252
3
1
4
253
3
254
3
7
4
5
4
12
4
18
4
16
4
16
4
23
4
17
4
24
4
29
4
23
4
24
4
27
4
24
4
28
4
23
4
16
4
12
4
15
4
8
4
4
4
6
4
248
3
244
3
239
3
232
3
228
3
227
3
214
3
212
3
205
3
197
3
188
3
183
3
172
3
164
3
160
3
144
3
140
3
133
3
121
3
116
3
114
3
105
3
100
3
97
3
87
3
81
3
82
3
76
3
72
3
71
3
62
3
60
3
61
3
60
3
61
3
63
3
60
3
60
3
64
3
61
3
64
3
68
3
61
3
60
3
66
3
68
3
66
3
68
3
68
3
68
3
74
3
70
3
69
3
79
3
73
3
76
3
78
3
76
3
77
3
81
3
81
3
84
3
87
3
81
3
84
3
86
3
77
3
77
3
79
3
77
3
77
3
82
3
81
3
84
3
87
3
81
3
81
3
82
3
77
3
78
3
82
3
76
3
76
3
79
3
76
3
73
3
78
3
72
3
76
3
79
3
76
3
78
3
79
3
76
3
76
3
79
3
72
3
76
3
77
3
72
3
76
3
78
3
72
3
72
3
71
3
68
3
72
3
75
3
69
3
69
3
71
3
69
3
72
3
79
3
80
3
78
3
91
3
94
3
100
3
106
3
105
3
108
3
115
3
119
3
120
3
128
3
125
3
125
3
130
3
132
3
126
3
131
3
118
3
109
3
103
3
92
3
92
3
95
3
85
3
84
3
87
3
86
3
88
3
85
3
76
3
78
3
81
3
76
3
69
3
71
3
68
3
65
3
67
3
68
3
69
3
74
3
66
3
68
3
71
3
68
3
69
3
71
3
69
3
68
3
75
3
70
3
72
3
75
3
73
3
78
3
79
3
76
3
79
3
86
3
88
3
116
3
183
3
22
4
142
4
10
5
96
5
150
5
183
5
189
5
200
5
203
5
152
5
252
4
89
4
215
3
28
3
141
2
105
2
124
2
173
2
216
2
1
3
37
3
68
3
85
3
111
3
124
3
128
3
135
3
137
3
137
3
143
3
137
3
140
3
146
3
141
3
148
3
158
3
159
3
164
3
171
3
168
3
173
3
183
3
180
3
180
3
187
3
189
3
192
3
194
3
196
3
200
3
211
3
212
3
217
3
224
3
223
3
230
3
239
3
236
3
244
3
253
3
0
4
4
4
11
4
12
4
20
4
32
4
30
4
36
4
39
4
45
4
53
4
59
4
60
4
68
4
71
4
70
4
72
4
78
4
76
4
78
4
85
4
84
4
86
4
91
4
84
4
84
4
89
4
84
4
85
4
91
4
84
4
80
4
82
4
71
4
69
4
67
4
62
4
60
4
59
4
49
4
44
4
43
4
36
4
28
4
19
4
8
4
0
4
254
3
244
3
238
3
234
3
223
3
214
3
210
3
204
3
200
3
198
3
188
3
184
3
185
3
176
3
176
3
175
3
172
3
172
3
179
3
173
3
172
3
175
3
169
3
168
3
174
3
172
3
173
3
175
3
174
3
176
3
183
3
180
3
180
3
185
3
182
3
188
3
192
3
188
3
192
3
195
3
193
3
196
3
202
3
197
3
200
3
202
3
200
3
204
3
210
3
208
3
212
3
213
3
213
3
217
3
217
3
213
3
213
3
219
3
214
3
214
3
218
3
214
3
212
3
218
3
213
3
217
3
222
3
220
3
224
3
230
3
224
3
224
3
226
3
223
3
225
3
227
3
223
3
224
3
226
3
224
3
224
3
227
3
223
3
224
3
229
3
224
3
228
3
230
3
228
3
225
3
231
3
232
3
230
3
238
3
236
3
236
3
239
3
238
3
237
3
239
3
240
3
241
3
250
3
252
3
4
4
19
4
20
4
28
4
39
4
40
4
44
4
50
4
49
4
52
4
55
4
46
4
52
4
59
4
48
4
46
4
51
4
40
4
28
4
23
4
16
4
16
4
15
4
9
4
12
4
19
4
12
4
9
4
10
4
1
4
0
4
3
4
253
3
254
3
5
4
254
3
254
3
2
4
0
4
253
3
5
4
252
3
254
3
0
4
254
3
255
3
3
4
4
4
0
4
6
4
0
4
254
3
4
4
4
4
5
4
11
4
5
4
9
4
23
4
52
4
124
4
227
4
88
5
204
5
30
6
76
6
98
6
107
6
112
6
110
6
47
6
129
5
228
4
103
4
160
3
41
3
29
3
56
3
100
3
146
3
180
3
216
3
247
3
6
4
28
4
45
4
44
4
44
4
47
4
44
4
44
4
49
4
45
4
56
4
59
4
56
4
60
4
65
4
61
4
64
4
69
4
68
4
76
4
82
4
78
4
81
4
87
4
92
4
93
4
101
4
108
4
111
4
115
4
112
4
113
4
126
4
121
4
128
4
135
4
136
4
140
4
151
4
152
4
156
4
163
4
168
4
168
4
174
4
172
4
180
4
185
4
184
4
193
4
206
4
204
4
209
4
211
4
212
4
216
4
219
4
220
4
220
4
226
4
224
4
229
4
235
4
232
4
232
4
238
4
230
4
228
4
227
4
228
4
224
4
227
4
220
4
226
4
230
4
228
4
223
4
214
4
216
4
203
4
204
4
202
4
191
4
170
4
169
4
163
4
152
4
144
4
136
4
121
4
116
4
121
4
105
4
105
4
106
4
101
4
95
4
88
4
90
4
75
4
72
4
77
4
72
4
72
4
77
4
73
4
69
4
77
4
68
4
68
4
71
4
62
4
64
4
67
4
68
4
68
4
67
4
63
4
64
4
67
4
61
4
60
4
67
4
61
4
64
4
69
4
65
4
65
4
70
4
69
4
72
4
75
4
69
4
70
4
77
4
72
4
72
4
73
4
70
4
72
4
75
4
73
4
76
4
78
4
69
4
76
4
75
4
68
4
68
4
67
4
63
4
68
4
70
4
68
4
64
4
67
4
61
4
64
4
62
4
56
4
52
4
61
4
56
4
60
4
65
4
60
4
60
4
66
4
62
4
60
4
62
4
54
4
53
4
58
4
53
4
52
4
54
4
45
4
44
4
49
4
44
4
46
4
51
4
46
4
48
4
55
4
52
4
56
4
61
4
68
4
76
4
79
4
80
4
85
4
96
4
93
4
95
4
101
4
95
4
92
4
96
4
94
4
92
4
86
4
77
4
64
4
59
4
49
4
44
4
45
4
40
4
36
4
39
4
36
4
36
4
39
4
31
4
28
4
30
4
16
4
12
4
18
4
14
4
13
4
19
4
16
4
17
4
15
4
8
4
12
4
15
4
12
4
8
4
15
4
4
4
1
4
7
4
253
3
252
3
6
4
1
4
4
4
6
4
254
3
252
3
7
4
13
4
56
4
135
4
236
4
94
5
202
5
12
6
48
6
65
6
60
6
60
6
51
6
196
5
28
5
143
4
254
3
68
3
250
2
253
2
36
3
94
3
128
3
164
3
203
3
221
3
244
3
6
4
12
4
12
4
14
4
9
4
12
4
15
4
12
4
12
4
15
4
13
4
15
4
23
4
24
4
29
4
33
4
32
4
37
4
47
4
46
4
48
4
55
4
53
4
57
4
64
4
62
4
64
4
71
4
68
4
76
4
79
4
80
4
81
4
90
4
86
4
89
4
93
4
92
4
96
4
108
4
104
4
108
4
115
4
113
4
120
4
131
4
132
4
136
4
145
4
141
4
144
4
151
4
151
4
156
4
160
4
156
4
156
4
157
4
156
4
156
4
160
4
152
4
152
4
157
4
148
4
144
4
147
4
137
4
133
4
135
4
128
4
120
4
119
4
110
4
108
4
110
4
101
4
89
4
85
4
73
4
68
4
63
4
48
4
40
4
35
4
21
4
8
4
3
4
252
3
241
3
235
3
221
3
216
3
212
3
204
3
196
3
195
3
188
3
192
3
189
3
181
3
181
3
179
3
176
3
174
3
182
3
176
3
176
3
181
3
177
3
174
3
175
3
176
3
173
3
179
3
176
3
180
3
187
3
181
3
180
3
187
3
185
3
185
3
192
3
184
3
185
3
186
3
182
3
181
3
183
3
180
3
177
3
183
3
185
3
193
3
202
3
201
3
200
3
206
3
204
3
205
3
207
3
204
3
200
3
203
3
200
3
196
3
205
3
204
3
204
3
210
3
200
3
200
3
201
3
197
3
200
3
206
3
200
3
196
3
199
3
196
3
193
3
195
3
185
3
181
3
187
3
184
3
188
3
190
3
189
3
188
3
195
3
188
3
192
3
197
3
191
3
192
3
195
3
191
3
196
3
195
3
190
3
196
3
199
3
197
3
200
3
210
3
208
3
216
3
223
3
221
3
224
3
227
3
228
3
232
3
238
3
236
3
236
3
239
3
236
3
233
3
231
3
229
3
224
3
218
3
201
3
196
3
197
3
192
3
188
3
193
3
188
3
188
3
192
3
188
3
188
3
183
3
172
3
172
3
175
3
174
3
173
3
178
3
180
3
180
3
183
3
180
3
184
3
189
3
181
3
182
3
183
3
176
3
180
3
179
3
177
3
180
3
186
3
182
3
182
3
187
3
185
3
181
3
189
3
188
3
204
3
10
4
92
4
200
4
74
5
176
5
4
6
29
6
20
6
14
6
251
5
168
5
20
5
131
4
246
3
52
3
182
2
156
2
168
2
209
2
1
3
47
3
93
3
124
3
148
3
174
3
188
3
196
3
203
3
198
3
204
3
210
3
208
3
209
3
215
3
212
3
216
3
219
3
212
3
212
3
219
3
217
3
221
3
227
3
228
3
232
3
242
3
244
3
241
3
245
3
244
3
252
3
5
4
0
4
0
4
11
4
12
4
13
4
22
4
22
4
24
4
33
4
32
4
38
4
46
4
44
4
52
4
59
4
60
4
64
4
67
4
68
4
76
4
82
4
84
4
85
4
91
4
89
4
92
4
101
4
95
4
101
4
107
4
105
4
105
4
110
4
104
4
105
4
107
4
101
4
100
4
101
4
93
4
92
4
97
4
92
4
88
4
87
4
73
4
72
4
70
4
57
4
56
4
51
4
40
4
30
4
29
4
17
4
8
4
6
4
245
3
240
3
239
3
228
3
222
3
218
3
205
3
200
3
195
3
184
3
180
3
177
3
165
3
168
3
166
3
161
3
164
3
163
3
156
3
156
3
158
3
157
3
156
3
160
3
156
3
152
3
155
3
149
3
153
3
157
3
152
3
153
3
161
3
158
3
157
3
159
3
152
3
156
3
163
3
160
3
164
3
174
3
169
3
172
3
171
3
164
3
164
3
167
3
164
3
165
3
167
3
168
3
168
3
171
3
165
3
165
3
171
3
168
3
172
3
174
3
168
3
168
3
171
3
166
3
168
3
170
3
164
3
164
3
167
3
164
3
166
3
163
3
161
3
161
3
165
3
164
3
164
3
163
3
161
3
164
3
167
3
161
3
164
3
167
3
164
3
161
3
167
3
161
3
164
3
166
3
159
3
160
3
167
3
159
3
161
3
167
3
164
3
168
3
181
3
184
3
188
3
195
3
196
3
200
3
206
3
209
3
212
3
219
3
216
3
213
3
215
3
208
3
204
3
206
3
200
3
196
3
191
3
176
3
172
3
174
3
165
3
161
3
167
3
164
3
164
3
162
3
156
3
152
3
155
3
152
3
150
3
154
3
148
3
142
3
147
3
140
3
140
3
146
3
141
3
145
3
151
3
144
3
148
3
149
3
141
3
141
3
147
3
140
3
140
3
146
3
143
3
141
3
145
3
140
3
140
3
151
3
152
3
174
3
239
3
69
4
188
4
55
5
149
5
216
5
251
5
0
6
6
6
3
6
205
5
52
5
151
4
14
4
84
3
194
2
156
2
172
2
217
2
1
3
40
3
82
3
109
3
132
3
151
3
164
3
172
3
178
3
173
3
172
3
178
3
177
3
180
3
183
3
181
3
188
3
194
3
193
3
196
3
205
3
200
3
204
3
213
3
212
3
212
3
218
3
213
3
220
3
230
3
228
3
232
3
237
3
236
3
244
3
247
3
244
3
248
3
0
4
253
3
4
4
7
4
8
4
12
4
19
4
21
4
28
4
35
4
32
4
37
4
47
4
44
4
45
4
54
4
56
4
64
4
69
4
63
4
68
4
75
4
73
4
78
4
87
4
84
4
80
4
85
4
84
4
81
4
85
4
80
4
77
4
79
4
68
4
64
4
59
4
53
4
48
4
54
4
44
4
37
4
35
4
28
4
20
4
19
4
5
4
4
4
255
3
244
3
236
3
238
3
228
3
221
3
215
3
200
3
197
3
195
3
188
3
181
3
182
3
172
3
166
3
167
3
159
3
156
3
155
3
150
3
148
3
150
3
143
3
144
3
151
3
150
3
153
3
160
3
153
3
154
3
161
3
156
3
158
3
165
3
164
3
164
3
166
3
164
3
164
3
171
3
172
3
172
3
177
3
173
3
174
3
183
3
177
3
180
3
183
3
184
3
184
3
192
3
188
3
192
3
198
3
188
3
188
3
195
3
190
3
192
3
198
3
189
3
196
3
202
3
197
3
200
3
203
3
197
3
197
3
198
3
196
3
197
3
197
3
191
3
192
3
197
3
193
3
196
3
199
3
196
3
193
3
197
3
193
3
196
3
199
3
196
3
192
3
197
3
196
3
196
3
203
3
200
3
204
3
205
3
204
3
207
3
213
3
206
3
207
3
215
3
216
3
220
3
222
3
220
3
232
3
243
3
240
3
246
3
0
4
0
4
4
4
18
4
13
4
20
4
23
4
13
4
16
4
20
4
13
4
13
4
11
4
0
4
248
3
245
3
236
3
237
3
239
3
233
3
236
3
238
3
236
3
232
3
235
3
231
3
229
3
231
3
224
3
225
3
228
3
222
3
222
3
227
3
228
3
224
3
227
3
222
3
224
3
229
3
223
3
225
3
230
3
229
3
229
3
235
3
236
3
236
3
239
3
236
3
236
3
243
3
244
3
252
3
14
4
52
4
128
4
239
4
100
5
206
5
23
6
60
6
78
6
91
6
100
6
100
6
11
6
88
5
200
4
71
4
132
3
40
3
45
3
76
3
120
3
170
3
200
3
236
3
5
4
20
4
40
4
55
4
60
4
60
4
59
4
60
4
56
4
62
4
60
4
64
4
71
4
72
4
76
4
78
4
77
4
80
4
90
4
88
4
92
4
108
4
114
4
115
4
133
4
98
4
133
4
145
4
134
4
138
4
144
4
152
4
147
4
151
4
160
4
156
4
160
4
172
4
172
4
177
4
188
4
188
4
190
4
200
4
209
4
212
4
217
4
220
4
217
4
221
4
226
4
228
4
231
4
232
4
237
4
235
4
238
4
238
4
240
4
242
4
243
4
247
4
246
4
243
4
250
4
249
4
250
4
254
4
251
4
242
4
246
4
241
4
236
4
235
4
231
4
226
4
226
4
221
4
214
4
215
4
209
4
202
4
195
4
187
4
178
4
171
4
163
4
156
4
147
4
138
4
131
4
128
4
120
4
112
4
107
4
99
4
94
4
94
4
86
4
82
4
87
4
82
4
80
4
82
4
81
4
77
4
79
4
78
4
76
4
80
4
81
4
78
4
82
4
82
4
84
4
86
4
81
4
84
4
83
4
86
4
85
4
87
4
87
4
84
4
90
4
88
4
87
4
90
4
90
4
89
4
91
4
93
4
92
4
98
4
98
4
98
4
104
4
102
4
102
4
106
4
102
4
98
4
97
4
98
4
100
4
102
4
98
4
95
4
99
4
99
4
97
4
102
4
99
4
100
4
103
4
99
4
96
4
91
4
93
4
89
4
94
4
90
4
88
4
87
4
88
4
88
4
91
4
86
4
81
4
82
4
81
4
80
4
86
4
85
4
83
4
83
4
83
4
83
4
87
4
83
4
85
4
87
4
87
4
86
4
95
4
88
4
90
4
102
4
104
4
105
4
114
4
119
4
118
4
128
4
130
4
132
4
131
4
129
4
130
4
138
4
136
4
126
4
123
4
111
4
99
4
94
4
87
4
83
4
83
4
77
4
73
4
78
4
75
4
71
4
72
4
70
4
63
4
67
4
58
4
54
4
54
4
55
4
53
4
54
4
51
4
45
4
48
4
44
4
45
4
46
4
43
4
41
4
43
4
43
4
44
4
48
4
47
4
44
4
47
4
41
4
40
4
43
4
42
4
42
4
54
4
78
4
144
4
239
4
97
5
203
5
34
6
76
6
98
6
106
6
111
6
106
6
58
6
151
5
248
4
126
4
189
3
62
3
46
3
75
3
121
3
170
3
201
3
234
3
7
4
30
4
51
4
66
4
63
4
60
4
64
4
63
4
63
4
66
4
62
4
63
4
64
4
72
4
70
4
74
4
75
4
75
4
82
4
87
4
87
4
91
4
93
4
89
4
98
4
99
4
98
4
99
4
101
4
106
4
111
4
111
4
116
4
120
4
125
4
128
4
131
4
135
4
138
4
142
4
146
4
146
4
151
4
150
4
156
4
160
4
160
4
165
4
174
4
175
4
180
4
186
4
190
4
192
4
199
4
199
4
199
4
200
4
203
4
208
4
210
4
204
4
207
4
210
4
211
4
204
4
206
4
202
4
194
4
194
4
186
4
177
4
178
4
168
4
162
4
159
4
156
4
150
4
146
4
138
4
128
4
123
4
117
4
110
4
102
4
93
4
86
4
82
4
72
4
62
4
59
4
45
4
37
4
27
4
18
4
16
4
14
4
10
4
1
4
2
4
253
3
247
3
250
3
250
3
246
3
251
3
250
3
247
3
250
3
243
3
238
3
239
3
238
3
235
3
238
3
234
3
234
3
235
3
234
3
235
3
237
3
237
3
237
3
238
3
238
3
237
3
238
3
238
3
236
3
242
3
240
3
240
3
246
3
246
3
242
3
242
3
235
3
234
3
241
3
243
3
242
3
247
3
249
3
250
3
254
3
252
3
246
3
248
3
247
3
246
3
250
3
249
3
247
3
251
3
249
3
247
3
251
3
252
3
249
3
250
3
246
3
244
3
246
3
239
3
236
3
238
3
236
3
232
3
235
3
239
3
238
3
235
3
234
3
232
3
235
3
236
3
234
3
231
3
232
3
230
3
229
3
229
3
229
3
235
3
231
3
227
3
242
3
249
3
254
3
3
4
10
4
10
4
19
4
22
4
16
4
22
4
22
4
22
4
22
4
26
4
30
4
26
4
20
4
11
4
255
3
245
3
235
3
231
3
231
3
226
3
222
3
220
3
221
3
227
3
222
3
219
3
218
3
209
3
207
3
210
3
208
3
204
3
206
3
206
3
205
3
210
3
206
3
205
3
209
3
205
3
203
3
206
3
203
3
203
3
207
3
210
3
210
3
210
3
207
3
202
3
207
3
206
3
204
3
208
3
210
3
226
3
23
4
98
4
198
4
70
5
179
5
253
5
32
6
30
6
27
6
10
6
218
5
75
5
182
4
46
4
123
3
222
2
178
2
198
2
250
2
45
3
94
3
130
3
160
3
184
3
211
3
234
3
242
3
248
3
244
3
242
3
243
3
244
3
246
3
251
3
246
3
248
3
2
4
3
4
5
4
11
4
14
4
14
4
19
4
23
4
28
4
34
4
35
4
35
4
38
4
43
4
42
4
43
4
46
4
50
4
59
4
58
4
64
4
74
4
73
4
71
4
75
4
82
4
86
4
96
4
99
4
94
4
99
4
98
4
98
4
106
4
110
4
116
4
128
4
124
4
126
4
138
4
138
4
139
4
146
4
147
4
148
4
150
4
145
4
146
4
156
4
154
4
147
4
146
4
143
4
135
4
135
4
131
4
126
4
128
4
126
4
125
4
122
4
110
4
108
4
106
4
98
4
89
4
86
4
80
4
71
4
64
4
51
4
44
4
39
4
35
4
22
4
14
4
254
3
246
3
238
3
233
3
230
3
226
3
214
3
206
3
210
3
205
3
199
3
194
3
190
3
188
3
187
3
183
3
178
3
182
3
179
3
182
3
186
3
185
3
181
3
186
3
183
3
176
3
179
3
177
3
173
3
179
3
174
3
172
3
178
3
174
3
170
3
174
3
172
3
174
3
179
3
182
3
181
3
184
3
179
3
178
3
182
3
182
3
180
3
182
3
179
3
174
3
179
3
175
3
172
3
176
3
175
3
170
3
171
3
170
3
167
3
170
3
168
3
169
3
174
3
171
3
167
3
170
3
169
3
165
3
170
3
170
3
168
3
167
3
161
3
160
3
163
3
162
3
162
3
159
3
158
3
154
3
158
3
155
3
158
3
158
3
154
3
154
3
151
3
153
3
153
3
154
3
154
3
156
3
162
3
166
3
168
3
175
3
177
3
177
3
183
3
187
3
187
3
193
3
191
3
187
3
187
3
191
3
190
3
190
3
186
3
181
3
178
3
166
3
152
3
150
3
142
3
135
3
139
3
135
3
136
3
138
3
138
3
135
3
131
3
130
3
126
3
128
3
123
3
125
3
128
3
126
3
124
3
130
3
131
3
132
3
134
3
128
3
127
3
131
3
130
3
126
3
131
3
128
3
126
3
130
3
127
3
127
3
130
3
127
3
125
3
128
3
130
3
135
3
167
3
226
3
56
4
168
4
32
5
141
5
219
5
241
5
240
5
232
5
206
5
132
5
241
4
88
4
194
3
2
3
132
2
116
2
130
2
171
2
220
2
10
3
42
3
76
3
108
3
130
3
147
3
160
3
160
3
158
3
159
3
156
3
156
3
163
3
167
3
166
3
170
3
176
3
174
3
179
3
185
3
182
3
190
3
191
3
194
3
199
3
200
3
198
3
210
3
206
3
211
3
214
3
218
3
219
3
222
3
226
3
228
3
235
3
237
3
238
3
250
3
251
3
252
3
0
4
1
4
4
4
10
4
15
4
18
4
23
4
27
4
33
4
38
4
40
4
44
4
50
4
51
4
50
4
59
4
59
4
58
4
64
4
66
4
66
4
74
4
70
4
69
4
70
4
70
4
70
4
67
4
61
4
52
4
56
4
49
4
44
4
45
4
41
4
36
4
35
4
30
4
24
4
22
4
12
4
6
4
2
4
247
3
233
3
234
3
225
3
214
3
210
3
206
3
200
3
198
3
190
3
186
3
182
3
174
3
167
3
163
3
159
3
154
3
155
3
154
3
149
3
147
3
149
3
148
3
154
3
147
3
148
3
147
3
147
3
148
3
154
3
154
3
149
3
154
3
154
3
156
3
160
3
158
3
161
3
162
3
163
3
164
3
170
3
171
3
166
3
174
3
175
3
175
3
182
3
178
3
178
3
186
3
184
3
184
3
186
3
191
3
187
3
190
3
187
3
181
3
187
3
186
3
186
3
190
3
189
3
192
3
191
3
188
3
188
3
194
3
191
3
190
3
192
3
188
3
187
3
190
3
187
3
183
3
187
3
190
3
186
3
190
3
187
3
182
3
183
3
177
3
171
3
182
3
179
3
174
3
175
3
180
3
179
3
186
3
182
3
176
3
183
3
177
3
172
3
178
3
181
3
181
3
182
3
186
3
195
3
208
3
206
3
206
3
218
3
219
3
220
3
223
3
223
3
223
3
227
3
227
3
228
3
231
3
227
3
222
3
218
3
203
3
194
3
194
3
190
3
187
3
189
3
187
3
187
3
194
3
190
3
184
3
182
3
180
3
178
3
182
3
179
3
178
3
178
3
176
3
175
3
179
3
175
3
176
3
178
3
172
3
171
3
171
3
171
3
166
3
169
3
168
3
164
3
174
3
174
3
174
3
176
3
171
3
170
3
174
3
176
3
180
3
211
3
28
4
119
4
244
4
103
5
191
5
235
5
13
6
26
6
39
6
52
6
241
5
83
5
174
4
51
4
117
3
222
2
190
2
201
2
251
2
55
3
80
3
109
3
148
3
167
3
186
3
196
3
204
3
197
3
193
3
190
3
196
3
197
3
196
3
196
3
199
3
204
3
196
3
203
3
204
3
205
3
213
3
212
3
212
3
219
3
221
3
228
3
231
3
229
3
232
3
243
3
240
3
244
3
247
3
249
3
253
3
7
4
5
4
13
4
23
4
20
4
21
4
32
4
29
4
32
4
39
4
40
4
46
4
54
4
53
4
64
4
71
4
65
4
73
4
79
4
80
4
85
4
87
4
88
4
88
4
98
4
100
4
108
4
113
4
110
4
108
4
110
4
108
4
109
4
108
4
101
4
101
4
103
4
101
4
100
4
99
4
92
4
88
4
94
4
80
4
76
4
71
4
61
4
56
4
55
4
41
4
36
4
31
4
16
4
8
4
6
4
248
3
240
3
234
3
222
3
220
3
215
3
208
3
204
3
202
3
189
3
188
3
187
3
181
3
177
3
178
3
176
3
172
3
177
3
172
3
173
3
175
3
174
3
176
3
182
3
177
3
180
3
179
3
174
3
176
3
179
3
177
3
175
3
183
3
184
3
184
3
187
3
183
3
186
3
191
3
188
3
192
3
195
3
188
3
188
3
197
3
189
3
188
3
190
3
182
3
180
3
185
3
176
3
175
3
183
3
176
3
180
3
183
3
176
3
174
3
178
3
168
3
168
3
171
3
167
3
168
3
173
3
169
3
168
3
175
3
169
3
166
3
175
3
169
3
168
3
174
3
164
3
166
3
170
3
164
3
165
3
166
3
161
3
157
3
160
3
157
3
156
3
160
3
152
3
156
3
162
3
159
3
161
3
165
3
164
3
161
3
170
3
166
3
174
3
186
3
189
3
193
3
201
3
205
3
208
3
218
3
217
3
224
3
228
3
220
3
220
3
224
3
216
3
212
3
210
3
196
3
189
3
187
3
181
3
176
3
181
3
173
3
172
3
174
3
169
3
165
3
166
3
156
3
153
3
157
3
148
3
144
3
147
3
144
3
148
3
151
3
150
3
152
3
154
3
148
3
142
3
149
3
141
3
142
3
149
3
148
3
148
3
151
3
145
3
148
3
149
3
148
3
148
3
154
3
149
3
156
3
163
3
193
3
4
4
109
4
220
4
76
5
157
5
196
5
220
5
227
5
237
5
238
5
170
5
248
4
92
4
227
3
29
3
169
2
170
2
196
2
238
2
34
3
63
3
100
3
131
3
148
3
168
3
182
3
180
3
184
3
187
3
182
3
189
3
187
3
185
3
188
3
193
3
191
3
192
3
198
3
200
3
204
3
207
3
209
3
208
3
218
3
212
3
220
3
226
3
224
3
228
3
234
3
232
3
236
3
245
3
248
3
249
3
1
4
253
3
4
4
10
4
12
4
15
4
25
4
23
4
31
4
35
4
33
4
40
4
47
4
49
4
56
4
63
4
61
4
64
4
71
4
73
4
78
4
86
4
80
4
84
4
96
4
94
4
97
4
102
4
102
4
100
4
99
4
96
4
96
4
98
4
93
4
93
4
96
4
89
4
84
4
87
4
80
4
76
4
75
4
68
4
64
4
65
4
56
4
52
4
46
4
36
4
31
4
21
4
12
4
5
4
3
4
244
3
236
3
231
3
220
3
209
3
207
3
191
3
184
3
177
3
169
3
164
3
163
3
156
3
156
3
159
3
152
3
148
3
155
3
150
3
148
3
151
3
150
3
148
3
151
3
148
3
148
3
151
3
149
3
148
3
155
3
152
3
152
3
158
3
150
3
148
3
155
3
148
3
148
3
150
3
145
3
144
3
147
3
144
3
144
3
150
3
144
3
145
3
150
3
148
3
143
3
151
3
153
3
152
3
155
3
149
3
148
3
151
3
148
3
148
3
150
3
141
3
143
3
147
3
144
3
144
3
151
3
144
3
142
3
150
3
148
3
148
3
151
3
148
3
145
3
148
3
149
3
148
3
151
3
152
3
149
3
154
3
148
3
149
3
154
3
148
3
144
3
150
3
148
3
148
3
151
3
145
3
148
3
151
3
148
3
156
3
163
3
159
3
165
3
181
3
184
3
188
3
195
3
191
3
192
3
203
3
206
3
209
3
211
3
208
3
204
3
211
3
205
3
204
3
202
3
184
3
172
3
167
3
156
3
156
3
158
3
153
3
156
3
161
3
156
3
152
3
151
3
148
3
148
3
146
3
136
3
134
3
141
3
137
3
140
3
147
3
140
3
141
3
147
3
144
3
144
3
146
3
145
3
142
3
146
3
141
3
140
3
142
3
134
3
140
3
142
3
136
3
129
3
134
3
133
3
148
3
167
3
204
3
21
4
129
4
240
4
92
5
160
5
191
5
200
5
203
5
204
5
188
5
79
5
164
4
20
4
135
3
196
2
124
2
146
2
188
2
240
2
39
3
68
3
100
3
133
3
151
3
172
3
181
3
176
3
180
3
175
3
172
3
176
3
183
3
180
3
188
3
195
3
189
3
196
3
199
3
196
3
193
3
203
3
204
3
209
3
219
3
213
3
217
3
223
3
220
3
226
3
230
3
229
3
237
3
246
3
246
3
248
3
2
4
4
4
4
4
11
4
8
4
13
4
22
4
20
4
21
4
31
4
33
4
40
4
45
4
45
4
46
4
51
4
54
4
54
4
65
4
61
4
68
4
75
4
76
4
84
4
91
4
88
4
89
4
96
4
92
4
92
4
99
4
93
4
100
4
102
4
94
4
92
4
96
4
88
4
84
4
82
4
69
4
68
4
71
4
63
4
56
4
54
4
44
4
37
4
35
4
21
4
14
4
11
4
253
3
240
3
234
3
220
3
208
3
203
3
193
3
192
3
193
3
180
3
168
3
166
3
157
3
152
3
153
3
142
3
141
3
143
3
144
3
142
3
143
3
136
3
134
3
135
3
132
3
140
3
146
3
141
3
144
3
143
3
140
3
136
3
141
3
140
3
136
3
141
3
141
3
143
3
139
3
141
3
144
3
150
3
144
3
144
3
149
3
148
3
149
3
151
3
144
3
148
3
154
3
148
3
149
3
157
3
152
3
149
3
154
3
152
3
152
3
151
3
150
3
149
3
160
3
150
3
148
3
151
3
148
3
144
3
147
3
144
3
144
3
154
3
148
3
144
3
150
3
144
3
145
3
143
3
140
3
140
3
147
3
149
3
152
3
157
3
156
3
150
3
150
3
148
3
143
3
147
3
144
3
145
3
150
3
152
3
161
3
163
3
159
3
165
3
171
3
172
3
172
3
179
3
176
3
180
3
189
3
189
3
196
3
198
3
188
3
188
3
191
3
191
3
184
3
186
3
180
3
164
3
157
3
154
3
156
3
160
3
144
3
140
3
149
3
144
3
143
3
143
3
137
3
137
3
137
3
133
3
133
3
135
3
124
3
124
3
135
3
129
3
132
3
135
3
132
3
128
3
135
3
127
3
124
3
131
3
127
3
132
3
139
3
133
3
132
3
139
3
136
3
132
3
135
3
136
3
141
3
151
3
172
3
228
3
55
4
156
4
24
5
142
5
228
5
252
5
251
5
244
5
216
5
143
5
244
4
95
4
210
3
12
3
136
2
114
2
124
2
164
2
223
2
4
3
41
3
78
3
102
3
124
3
147
3
157
3
164
3
163
3
161
3
158
3
166
3
164
3
168
3
175
3
173
3
173
3
182
3
184
3
188
3
199
3
198
3
204
3
209
3
204
3
206
3
218
3
217
3
224
3
226
3
220
3
222
3
228
3
228
3
232
3
239
3
232
3
236
3
243
3
240
3
244
3
254
3
252
3
254
3
7
4
5
4
12
4
23
4
20
4
24
4
29
4
28
4
32
4
39
4
41
4
44
4
52
4
52
4
56
4
62
4
64
4
64
4
66
4
60
4
64
4
65
4
60
4
60
4
66
4
60
4
52
4
54
4
44
4
44
4
45
4
36
4
33
4
31
4
29
4
24
4
23
4
13
4
4
4
2
4
248
3
238
3
233
3
216
3
212
3
206
3
196
3
188
3
179
3
172
3
161
3
157
3
149
3
141
3
141
3
133
3
132
3
133
3
124
3
124
3
125
3
120
3
112
3
115
3
108
3
108
3
114
3
108
3
109
3
119
3
116
3
113
3
118
3
117
3
117
3
123
3
117
3
116
3
126
3
116
3
124
3
129
3
127
3
132
3
132
3
127
3
128
3
134
3
132
3
136
3
142
3
140
3
144
3
143
3
140
3
140
3
147
3
145
3
143
3
149
3
145
3
148
3
154
3
142
3
141
3
148
3
140
3
140
3
146
3
141
3
144
3
147
3
142
3
144
3
146
3
140
3
140
3
142
3
136
3
141
3
143
3
140
3
136
3
143
3
134
3
136
3
138
3
136
3
137
3
143
3
140
3
140
3
143
3
140
3
140
3
142
3
140
3
140
3
151
3
152
3
157
3
166
3
164
3
168
3
177
3
180
3
188
3
195
3
196
3
201
3
203
3
196
3
200
3
206
3
201
3
204
3
206
3
197
3
188
3
179
3
169
3
173
3
171
3
171
3
176
3
170
3
172
3
168
3
167
3
163
3
162
3
170
3
159
3
151
3
155
3
146
3
145
3
147
3
150
3
149
3
147
3
152
3
149
3
122
3
150
3
152
3
146
3
144
3
149
3
142
3
140
3
141
3
140
3
147
3
145
3
146
3
151
3
147
3
158
3
194
3
6
4
106
4
234
4
96
5
181
5
231
5
254
5
7
6
19
6
18
6
200
5
32
5
126
4
246
3
43
3
175
2
155
2
183
2
232
2
20
3
59
3
91
3
118
3
143
3
162
3
172
3
179
3
182
3
180
3
187
3
185
3
183
3
186
3
186
3
186
3
187
3
186
3
186
3
191
3
197
3
196
3
206
3
206
3
204
3
211
3
216
3
220
3
226
3
226
3
226
3
234
3
234
3
233
3
242
3
243
3
246
3
0
4
2
4
1
4
7
4
10
4
12
4
18
4
22
4
21
4
26
4
30
4
34
4
43
4
48
4
51
4
58
4
60
4
62
4
70
4
74
4
76
4
78
4
78
4
82
4
87
4
86
4
88
4
91
4
88
4
82
4
86
4
82
4
82
4
85
4
81
4
76
4
75
4
69
4
64
4
63
4
55
4
51
4
49
4
44
4
33
4
27
4
15
4
3
4
2
4
247
3
235
3
227
3
218
3
207
3
203
3
190
3
176
3
176
3
164
3
154
3
151
3
142
3
135
3
136
3
135
3
129
3
126
3
122
3
123
3
126
3
126
3
123
3
123
3
120
3
118
3
123
3
121
3
119
3
123
3
126
3
124
3
126
3
123
3
126
3
134
3
132
3
132
3
134
3
136
3
134
3
142
3
143
3
146
3
150
3
148
3
150
3
154
3
157
3
161
3
166
3
162
3
156
3
160
3
163
3
162
3
162
3
160
3
160
3
166
3
162
3
162
3
163
3
165
3
166
3
170
3
170
3
171
3
171
3
170
3
165
3
171
3
168
3
170
3
174
3
171
3
169
3
174
3
168
3
166
3
168
3
167
3
167
3
174
3
168
3
168
3
171
3
169
3
164
3
170
3
169
3
164
3
166
3
162
3
159
3
169
3
174
3
171
3
174
3
174
3
178
3
191
3
189
3
194
3
199
3
204
3
209
3
215
3
216
3
216
3
218
3
210
3
212
3
218
3
214
3
207
3
208
3
194
3
184
3
183
3
176
3
171
3
174
3
173
3
166
3
171
3
170
3
162
3
162
3
160
3
158
3
158
3
152
3
151
3
153
3
150
3
146
3
146
3
144
3
145
3
144
3
144
3
144
3
146
3
142
3
140
3
139
3
139
3
138
3
142
3
145
3
144
3
147
3
145
3
145
3
146
3
147
3
152
3
176
3
231
3
58
4
170
4
30
5
123
5
186
5
215
5
231
5
242
5
249
5
229
5
98
5
179
4
44
4
142
3
220
2
163
2
184
2
222
2
11
3
56
3
89
3
124
3
147
3
173
3
188
3
190
3
190
3
194
3
198
3
194
3
192
3
194
3
197
3
200
3
208
3
210
3
210
3
218
3
219
3
224
3
230
3
231
3
234
3
243
3
242
3
243
3
250
3
254
3
2
4
8
4
6
4
9
4
18
4
22
4
24
4
31
4
36
4
36
4
43
4
45
4
45
4
50
4
58
4
59
4
66
4
73
4
72
4
80
4
82
4
88
4
95
4
92
4
95
4
102
4
107
4
114
4
121
4
123
4
126
4
135
4
134
4
132
4
138
4
136
4
132
4
135
4
135
4
135
4
138
4
126
4
124
4
126
4
123
4
123
4
123
4
115
4
106
4
107
4
99
4
95
4
94
4
82
4
70
4
66
4
54
4
46
4
39
4
26
4
10
4
10
4
253
3
246
3
239
3
226
3
218
3
216
3
210
3
202
3
202
3
198
3
190
3
187
3
184
3
180
3
178
3
178
3
176
3
182
3
181
3
179
3
179
3
178
3
175
3
178
3
178
3
178
3
179
3
179
3
179
3
186
3
182
3
178
3
182
3
179
3
182
3
183
3
182
3
182
3
187
3
186
3
178
3
179
3
180
3
181
3
187
3
184
3
183
3
187
3
190
3
188
3
191
3
191
3
187
3
190
3
188
3
187
3
190
3
188
3
190
3
191
3
189
3
188
3
190
3
186
3
182
3
186
3
186
3
183
3
187
3
187
3
188
3
190
3
190
3
187
3
190
3
188
3
185
3
190
3
184
3
183
3
184
3
182
3
184
3
187
3
184
3
182
3
186
3
184
3
181
3
187
3
186
3
186
3
190
3
193
3
194
3
203
3
209
3
212
3
219
3
222
3
226
3
234
3
237
3
240
3
246
3
243
3
240
3
243
3
242
3
238
3
238
3
232
3
223
3
216
3
206
3
201
3
203
3
200
3
194
3
195
3
194
3
193
3
190
3
184
3
183
3
184
3
181
3
176
3
178
3
181
3
177
3
182
3
177
3
169
3
171
3
174
3
171
3
171
3
171
3
172
3
171
3
172
3
167
3
171
3
168
3
166
3
167
3
166
3
164
3
170
3
170
3
170
3
178
3
184
3
220
3
46
4
146
4
7
5
114
5
175
5
216
5
230
5
230
5
234
5
226
5
118
5
199
4
54
4
172
3
239
2
163
2
182
2
222
2
16
3
63
3
93
3
130
3
154
3
176
3
199
3
209
3
208
3
207
3
206
3
202
3
208
3
212
3
212
3
219
3
215
3
217
3
219
3
217
3
220
3
227
3
230
3
234
3
238
3
241
3
240
3
242
3
244
3
244
3
250
3
254
3
1
4
10
4
10
4
10
4
16
4
16
4
18
4
26
4
32
4
36
4
46
4
47
4
47
4
58
4
58
4
57
4
59
4
59
4
68
4
74
4
72
4
76
4
82
4
83
4
84
4
94
4
98
4
98
4
107
4
111
4
116
4
118
4
116
4
115
4
118
4
123
4
114
4
118
4
114
4
109
4
112
4
106
4
100
4
102
4
96
4
91
4
91
4
82
4
74
4
75
4
72
4
66
4
62
4
50
4
38
4
31
4
22
4
12
4
6
4
254
3
240
3
238
3
222
3
216
3
207
3
200
3
194
3
187
3
179
3
173
3
170
3
170
3
167
3
166
3
163
3
159
3
159
3
155
3
150
3
150
3
149
3
148
3
151
3
147
3
148
3
154
3
160
3
151
3
158
3
158
3
154
3
162
3
162
3
159
3
163
3
162
3
162
3
166
3
163
3
162
3
170
3
168
3
164
3
168
3
166
3
164
3
170
3
169
3
166
3
167
3
168
3
166
3
170
3
173
3
170
3
171
3
176
3
170
3
171
3
169
3
164
3
163
3
164
3
164
3
170
3
170
3
169
3
170
3
168
3
167
3
168
3
163
3
165
3
170
3
165
3
162
3
168
3
163
3
166
3
170
3
168
3
166
3
170
3
166
3
168
3
174
3
169
3
164
3
170
3
170
3
173
3
174
3
176
3
179
3
190
3
191
3
194
3
198
3
197
3
201
3
211
3
214
3
216
3
215
3
212
3
206
3
208
3
213
3
212
3
214
3
210
3
199
3
199
3
187
3
182
3
182
3
179
3
176
3
176
3
176
3
173
3
174
3
168
3
165
3
170
3
164
3
154
3
155
3
157
3
159
3
160
3
154
3
150
3
158
3
155
3
153
3
155
3
153
3
151
3
154
3
154
3
156
3
158
3
164
3
159
3
166
3
166
3
160
3
163
3
160
3
159
3
166
3
171
3
204
3
18
4
106
4
218
4
87
5
187
5
253
5
11
6
9
6
252
5
218
5
114
5
214
4
67
4
173
3
240
2
143
2
139
2
155
2
206
2
5
3
45
3
86
3
121
3
139
3
168
3
189
3
193
3
201
3
203
3
201
3
206
3
209
3
210
3
215
3
219
3
221
3
225
3
227
3
225
3
234
3
233
3
227
3
230
3
234
3
238
3
250
3
254
3
250
3
254
3
3
4
4
4
11
4
12
4
14
4
19
4
26
4
25
4
34
4
33
4
30
4
38
4
42
4
48
4
51
4
50
4
54
4
62
4
63
4
65
4
71
4
72
4
76
4
81
4
82
4
84
4
98
4
99
4
103
4
107
4
108
4
109
4
114
4
113
4
113
4
118
4
115
4
111
4
112
4
108
4
106
4
106
4
100
4
94
4
90
4
88
4
85
4
83
4
83
4
78
4
75
4
71
4
60
4
59
4
47
4
37
4
34
4
22
4
16
4
10
4
3
4
247
3
238
3
225
3
218
3
211
3
206
3
195
3
190
3
182
3
176
3
174
3
170
3
162
3
163
3
157
3
151
3
158
3
149
3
146
3
151
3
150
3
150
3
147
3
148
3
148
3
154
3
150
3
152
3
154
3
156
3
154
3
155
3
155
3
150
3
155
3
157
3
157
3
163
3
162
3
167
3
167
3
168
3
165
3
166
3
165
3
165
3
170
3
168
3
168
3
170
3
167
3
164
3
167
3
168
3
165
3
162
3
161
3
164
3
171
3
168
3
165
3
167
3
170
3
166
3
167
3
162
3
168
3
170
3
165
3
164
3
170
3
166
3
160
3
162
3
158
3
159
3
163
3
160
3
159
3
163
3
162
3
166
3
164
3
166
3
164
3
166
3
162
3
161
3
166
3
159
3
166
3
169
3
164
3
171
3
180
3
181
3
162
3
191
3
200
3
189
3
196
3
215
3
212
3
207
3
203
3
209
3
203
3
199
3
197
3
194
3
184
3
174
3
166
3
166
3
164
3
159
3
154
3
153
3
162
3
158
3
154
3
158
3
152
3
152
3
151
3
147
3
144
3
147
3
147
3
146
3
156
3
156
3
151
3
155
3
154
3
150
3
155
3
154
3
152
3
154
3
148
3
150
3
154
3
155
3
154
3
154
3
155
3
153
3
155
3
155
3
162
3
178
3
219
3
44
4
155
4
16
5
126
5
218
5
8
6
9
6
22
6
19
6
246
5
134
5
222
4
75
4
171
3
237
2
161
2
167
2
195
2
244
2
38
3
78
3
110
3
146
3
163
3
176
3
194
3
194
3
191
3
194
3
190
3
190
3
195
3
194
3
198
3
203
3
203
3
206
3
207
3
208
3
213
3
216
3
218
3
215
3
219
3
219
3
222
3
227
3
231
3
235
3
240
3
243
3
246
3
255
3
254
3
1
4
5
4
6
4
9
4
14
4
18
4
16
4
23
4
26
4
25
4
31
4
32
4
41
4
48
4
52
4
57
4
66
4
72
4
71
4
74
4
79
4
82
4
87
4
89
4
88
4
94
4
93
4
91
4
98
4
97
4
96
4
99
4
98
4
97
4
95
4
94
4
87
4
86
4
76
4
74
4
72
4
71
4
66
4
63
4
57
4
53
4
50
4
40
4
28
4
30
4
17
4
3
4
254
3
245
3
235
3
227
3
219
3
210
3
207
3
198
3
190
3
182
3
173
3
169
3
167
3
165
3
157
3
160
3
161
3
158
3
158
3
154
3
149
3
155
3
160
3
156
3
158
3
150
3
154
3
159
3
157
3
156
3
159
3
161
3
158
3
167
3
162
3
166
3
162
3
163
3
159
3
162
3
160
3
157
3
163
3
163
3
164
3
170
3
171
3
169
3
174
3
169
3
167
3
171
3
170
3
171
3
174
3
175
3
172
3
174
3
178
3
172
3
175
3
171
3
168
3
168
3
169
3
168
3
174
3
172
3
170
3
174
3
174
3
170
3
171
3
172
3
170
3
174
3
171
3
170
3
176
3
171
3
166
3
175
3
171
3
171
3
175
3
173
3
170
3
171
3
168
3
168
3
174
3
173
3
172
3
178
3
176
3
180
3
183
3
184
3
186
3
202
3
205
3
206
3
216
3
218
3
220
3
226
3
234
3
235
3
235
3
230
3
230
3
239
3
235
3
228
3
227
3
218
3
206
3
202
3
195
3
193
3
194
3
191
3
186
3
187
3
191
3
186
3
182
3
184
3
180
3
179
3
174
3
172
3
174
3
170
3
173
3
176
3
171
3
171
3
170
3
167
3
164
3
166
3
167
3
166
3
171
3
174
3
170
3
176
3
172
3
170
3
175
3
173
3
169
3
174
3
170
3
174
3
192
3
238
3
62
4
179
4
39
5
144
5
216
5
254
5
14
6
23
6
35
6
24
6
171
5
248
4
97
4
211
3
15
3
188
2
202
2
234
2
20
3
70
3
101
3
130
3
155
3
177
3
196
3
206
3
209
3
204
3
211
3
207
3
210
3
215
3
213
3
213
3
218
3
214
3
216
3
222
3
226
3
228
3
230
3
228
3
228
3
239
3
238
3
243
3
250
3
254
3
0
4
8
4
11
4
16
4
16
4
19
4
19
4
23
4
27
4
31
4
38
4
42
4
42
4
48
4
48
4
51
4
59
4
63
4
66
4
75
4
78
4
81
4
85
4
86
4
90
4
99
4
103
4
105
4
114
4
118
4
118
4
130
4
128
4
125
4
130
4
124
4
125
4
131
4
134
4
129
4
130
4
125
4
122
4
126
4
123
4
117
4
112
4
108
4
102
4
99
4
91
4
86
4
87
4
78
4
71
4
63
4
55
4
43
4
35
4
27
4
16
4
10
4
0
4
245
3
243
3
235
3
223
3
219
3
214
3
204
3
203
3
196
3
190
3
190
3
184
3
178
3
183
3
176
3
175
3
179
3
181
3
179
3
184
3
179
3
177
3
182
3
180
3
175
3
178
3
175
3
174
3
179
3
180
3
178
3
179
3
178
3
178
3
182
3
180
3
176
3
179
3
184
3
184
3
186
3
184
3
187
3
190
3
190
3
190
3
194
3
187
3
186
3
187
3
183
3
182
3
187
3
185
3
184
3
187
3
186
3
185
3
190
3
187
3
187
3
190
3
188
3
188
3
191
3
189
3
188
3
191
3
182
3
178
3
186
3
183
3
184
3
187
3
186
3
185
3
184
3
178
3
178
3
183
3
178
3
177
3
182
3
179
3
173
3
178
3
176
3
174
3
178
3
176
3
178
3
186
3
187
3
187
3
195
3
202
3
206
3
210
3
215
3
220
3
227
3
232
3
236
3
238
3
235
3
232
3
235
3
239
3
237
3
238
3
227
3
215
3
208
3
202
3
195
3
194
3
187
3
186
3
190
3
187
3
189
3
191
3
183
3
176
3
179
3
175
3
168
3
167
3
166
3
163
3
166
3
164
3
161
3
163
3
168
3
162
3
166
3
165
3
162
3
162
3
155
3
159
3
162
3
160
3
163
3
166
3
165
3
162
3
166
3
166
3
164
3
175
3
184
3
228
3
50
4
154
4
11
5
115
5
181
5
216
5
235
5
240
5
249
5
240
5
127
5
206
4
62
4
176
3
243
2
169
2
179
2
218
2
11
3
53
3
83
3
123
3
142
3
167
3
190
3
191
3
188
3
194
3
194
3
194
3
203
3
202
3
201
3
208
3
206
3
209
3
211
3
218
3
216
3
218
3
222
3
225
3
232
3
233
3
236
3
239
3
239
3
242
3
247
3
245
3
245
3
254
3
3
4
254
3
4
4
7
4
9
4
19
4
24
4
25
4
31
4
37
4
40
4
43
4
43
4
41
4
50
4
49
4
52
4
58
4
62
4
57
4
62
4
67
4
69
4
70
4
70
4
66
4
75
4
79
4
78
4
83
4
88
4
86
4
86
4
78
4
82
4
90
4
83
4
80
4
78
4
75
4
72
4
67
4
58
4
50
4
46
4
46
4
42
4
39
4
34
4
26
4
26
4
11
4
2
4
243
3
231
3
220
3
214
3
203
3
187
3
182
3
168
3
155
3
152
3
141
3
135
3
130
3
122
3
116
3
114
3
104
3
100
3
99
3
98
3
94
3
95
3
91
3
91
3
94
3
91
3
87
3
90
3
86
3
87
3
88
3
82
3
78
3
82
3
82
3
77
3
86
3
82
3
82
3
86
3
82
3
84
3
81
3
80
3
82
3
83
3
79
3
80
3
80
3
75
3
76
3
79
3
80
3
78
3
86
3
86
3
82
3
80
3
77
3
81
3
83
3
82
3
77
3
82
3
76
3
72
3
71
3
69
3
68
3
75
3
73
3
74
3
83
3
78
3
75
3
78
3
72
3
70
3
67
3
63
3
69
3
71
3
74
3
70
3
74
3
69
3
68
3
74
3
75
3
76
3
80
3
76
3
72
3
71
3
65
3
64
3
71
3
72
3
78
3
90
3
102
3
111
3
110
3
111
3
112
3
114
3
118
3
112
3
115
3
116
3
118
3
118
3
128
3
126
3
130
3
122
3
114
3
107
3
96
3
92
3
96
3
93
3
87
3
90
3
88
3
92
3
94
3
94
3
92
3
91
3
86
3
82
3
86
3
85
3
83
3
86
3
85
3
86
3
86
3
86
3
87
3
90
3
90
3
88
3
91
3
88
3
87
3
90
3
94
3
94
3
98
3
96
3
98
3
98
3
93
3
94
3
106
3
114
3
157
3
231
3
70
4
180
4
42
5
134
5
181
5
190
5
186
5
163
5
134
5
19
5
114
4
231
3
81
3
156
2
83
2
86
2
116
2
174
2
220
2
9
3
48
3
73
3
96
3
122
3
133
3
137
3
138
3
138
3
137
3
139
3
138
3
141
3
147
3
147
3
149
3
154
3
159
3
159
3
167
3
166
3
166
3
174
3
173
3
173
3
178
3
181
3
184
3
190
3
190
3
192
3
194
3
195
3
197
3
207
3
208
3
210
3
214
3
215
3
215
3
222
3
226
3
230
3
238
3
239
3
237
3
247
3
249
3
254
3
1
4
5
4
8
4
18
4
19
4
20
4
22
4
23
4
21
4
26
4
28
4
29
4
34
4
32
4
30
4
34
4
32
4
28
4
31
4
28
4
25
4
27
4
19
4
15
4
16
4
11
4
10
4
11
4
7
4
2
4
251
3
242
3
233
3
234
3
224
3
211
3
207
3
200
3
195
3
187
3
178
3
170
3
162
3
153
3
140
3
139
3
131
3
124
3
123
3
115
3
106
3
110
3
104
3
100
3
105
3
99
3
96
3
98
3
95
3
90
3
90
3
86
3
87
3
93
3
93
3
93
3
98
3
100
3
96
3
96
3
96
3
98
3
99
3
98
3
98
3
103
3
103
3
102
3
102
3
100
3
100
3
102
3
104
3
106
3
111
3
109
3
106
3
112
3
112
3
112
3
118
3
127
3
126
3
115
3
122
3
127
3
119
3
119
3
128
3
125
3
123
3
130
3
128
3
123
3
132
3
137
3
137
3
134
3
136
3
129
3
131
3
135
3
136
3
121
3
132
3
134
3
136
3
133
3
134
3
137
3
138
3
138
3
138
3
138
3
140
3
133
3
133
3
132
3
132
3
132
3
132
3
133
3
138
3
136
3
142
3
144
3
152
3
159
3
164
3
171
3
173
3
178
3
186
3
192
3
198
3
202
3
199
3
197
3
200
3
204
3
208
3
210
3
204
3
193
3
184
3
169
3
164
3
162
3
160
3
156
3
158
3
163
3
168
3
168
3
164
3
162
3
162
3
155
3
152
3
158
3
153
3
154
3
153
3
159
3
164
3
162
3
160
3
166
3
166
3
166
3
162
3
163
3
164
3
164
3
168
3
170
3
174
3
174
3
176
3
180
3
182
3
179
3
178
3
186
3
200
3
244
3
64
4
173
4
32
5
129
5
198
5
232
5
240
5
236
5
242
5
222
5
113
5
196
4
49
4
169
3
250
2
184
2
201
2
248
2
40
3
83
3
116
3
160
3
183
3
208
3
229
3
237
3
240
3
236
3
239
3
238
3
241
3
246
3
246
3
249
3
249
3
0
4
2
4
4
4
8
4
10
4
5
4
12
4
14
4
19
4
22
4
28
4
33
4
36
4
40
4
45
4
48
4
50
4
52
4
56
4
58
4
68
4
74
4
79
4
83
4
84
4
90
4
93
4
102
4
100
4
108
4
112
4
118
4
126
4
130
4
136
4
138
4
140
4
143
4
150
4
152
4
155
4
163
4
164
4
168
4
169
4
174
4
176
4
177
4
178
4
180
4
179
4
178
4
180
4
183
4
176
4
178
4
173
4
170
4
168
4
162
4
160
4
158
4
154
4
150
4
146
4
144
4
136
4
132
4
129
4
118
4
114
4
103
4
98
4
92
4
82
4
74
4
65
4
55
4
50
4
42
4
32
4
24
4
18
4
15
4
18
4
14
4
8
4
6
4
6
4
2
4
254
3
0
4
254
3
252
3
254
3
253
3
0
4
4
4
7
4
8
4
8
4
7
4
6
4
6
4
4
4
2
4
8
4
9
4
10
4
12
4
17
4
22
4
20
4
23
4
24
4
26
4
34
4
33
4
34
4
36
4
40
4
44
4
44
4
46
4
47
4
50
4
48
4
47
4
46
4
46
4
46
4
45
4
44
4
46
4
44
4
48
4
50
4
47
4
48
4
47
4
47
4
44
4
44
4
42
4
44
4
47
4
47
4
46
4
46
4
47
4
44
4
46
4
45
4
42
4
46
4
44
4
46
4
46
4
48
4
48
4
50
4
50
4
44
4
46
4
49
4
50
4
53
4
53
4
56
4
66
4
68
4
74
4
84
4
86
4
88
4
92
4
100
4
102
4
109
4
107
4
108
4
104
4
105
4
106
4
102
4
100
4
94
4
84
4
76
4
68
4
70
4
69
4
68
4
68
4
68
4
68
4
62
4
59
4
60
4
58
4
54
4
50
4
44
4
41
4
38
4
40
4
41
4
42
4
43
4
45
4
46
4
43
4
43
4
42
4
40
4
41
4
42
4
46
4
48
4
46
4
44
4
46
4
44
4
45
4
42
4
46
4
44
4
55
4
96
4
169
4
12
5
124
5
232
5
44
6
80
6
86
6
76
6
68
6
42
6
179
5
14
5
129
4
242
3
60
3
254
2
30
3
82
3
142
3
191
3
226
3
10
4
39
4
68
4
88
4
100
4
98
4
99
4
103
4
104
4
106
4
108
4
110
4
108
4
112
4
118
4
122
4
124
4
126
4
126
4
132
4
130
4
130
4
134
4
136
4
140
4
141
4
142
4
146
4
148
4
148
4
150
4
158
4
162
4
168
4
165
4
166
4
170
4
174
4
178
4
178
4
182
4
188
4
194
4
197
4
200
4
206
4
206
4
212
4
218
4
220
4
218
4
222
4
223
4
224
4
227
4
232
4
236
4
236
4
234
4
238
4
241
4
239
4
242
4
246
4
247
4
250
4
243
4
241
4
242
4
239
4
236
4
230
4
227
4
221
4
214
4
212
4
210
4
204
4
196
4
185
4
182
4
182
4
166
4
158
4
152
4
142
4
134
4
126
4
119
4
112
4
108
4
96
4
86
4
83
4
79
4
70
4
60
4
55
4
50
4
45
4
39
4
32
4
34
4
29
4
26
4
28
4
28
4
26
4
28
4
25
4
24
4
22
4
24
4
24
4
20
4
21
4
20
4
22
4
22
4
18
4
18
4
14
4
14
4
15
4
20
4
22
4
22
4
26
4
24
4
25
4
25
4
21
4
24
4
23
4
20
4
20
4
22
4
24
4
26
4
23
4
20
4
19
4
21
4
26
4
22
4
23
4
18
4
24
4
21
4
20
4
24
4
27
4
28
4
26
4
22
4
20
4
19
4
20
4
22
4
22
4
25
4
24
4
22
4
19
4
18
4
18
4
19
4
18
4
20
4
24
4
20
4
24
4
19
4
22
4
26
4
23
4
18
4
19
4
28
4
25
4
27
4
33
4
42
4
44
4
45
4
46
4
51
4
55
4
60
4
70
4
71
4
70
4
62
4
56
4
58
4
59
4
57
4
56
4
52
4
39
4
30
4
30
4
32
4
30
4
26
4
27
4
32
4
36
4
33
4
26
4
27
4
25
4
26
4
26
4
26
4
24
4
22
4
25
4
32
4
34
4
33
4
32
4
35
4
30
4
32
4
28
4
25
4
26
4
24
4
23
4
26
4
28
4
30
4
30
4
28
4
24
4
26
4
30
4
32
4
44
4
88
4
156
4
250
4
110
5
230
5
76
6
133
6
133
6
128
6
104
6
48
6
174
5
28
5
143
4
228
3
58
3
247
2
0
3
28
3
79
3
126
3
175
3
213
3
244
3
15
4
30
4
48
4
56
4
60
4
58
4
58
4
61
4
62
4
64
4
67
4
70
4
70
4
70
4
74
4
78
4
80
4
82
4
82
4
82
4
84
4
84
4
89
4
88
4
91
4
91
4
96
4
104
4
103
4
100
4
104
4
106
4
114
4
120
4
122
4
124
4
124
4
125
4
134
4
134
4
135
4
144
4
145
4
146
4
146
4
148
4
149
4
152
4
154
4
156
4
164
4
174
4
177
4
182
4
184
4
185
4
186
4
188
4
190
4
188
4
190
4
189
4
188
4
188
4
190
4
186
4
185
4
185
4
178
4
174
4
170
4
166
4
165
4
158
4
150
4
149
4
138
4
130
4
131
4
119
4
116
4
111
4
101
4
92
4
84
4
76
4
66
4
58
4
52
4
46
4
40
4
32
4
20
4
15
4
7
4
4
4
250
3
247
3
242
3
238
3
237
3
240
3
237
3
237
3
236
3
236
3
235
3
240
3
242
3
236
3
240
3
239
3
236
3
234
3
235
3
235
3
238
3
238
3
241
3
242
3
